Index,Time,Difference,Hz,AveHz,Pressure,Acceleration-X,Acceleration-Y,Acceleration-Z,Magnetic-X,Magnetic-Y,Magnetic-Z,Angular-Vel-X,Angular-Vel-Y,Angular-Vel-Z,Heading,Roll,Pitch,Quaternion-X,Quaternion-Y,Quaternion-Z,Quaternion-W,Linear-Acceleration-X,Linear-Acceleration-Y,Linear-Acceleration-Z,Gravity-X,Gravity-Y,Gravity-Z,Position-X,Position-Y,Position-Z
0,0,0,0,0,2.68E-38,87,-126,986,-21.875,-1.375,-21.0625,-0.0625,5.375,-125,27,-0.8125,0.625,0.003662109,-0.008728027,0.233642578,-0.972290039,97,-110,-3,-14,-11,980,3187,3277,-1
1,0.095009565,0.095009565,10.52525602,10.52525602,2.68E-38,82,-116,970,-23.25,-3.1875,-21.875,-0.875,4.6875,-124.875,37.875,-1.125,0.8125,0.003845215,-0.011901855,0.324951172,-0.945678711,99,-101,2,-19,-14,980,3158,3246,12
2,0.185018301,0.090008736,11.11003274,10.80974146,2.68E-38,72,-116,979,-22.0625,-8.75,-20.375,-0.875,4.125,-125.125,48.8125,-1.3125,1.125,0.004577637,-0.014831543,0.413391113,-0.910461426,95,-96,0,-22,-20,980,3145,3158,102
3,0.281028032,0.096009731,10.41561086,10.67509165,2.68E-38,128,-117,983,-20.5625,-15,-21.5625,-0.25,4.1875,-125.3125,60.9375,-1.5,1.5,0.004699707,-0.018066406,0.507202148,-0.861633301,92,-94,5,-25,-25,979,3123,3108,190
4,0.379037857,0.098009825,10.20305875,10.5530356,2.68E-38,86,-120,967,-15.75,-20.0625,-22.375,-0.375,5.3125,-125.4375,73.0625,-1.625,1.8125,0.004455566,-0.021118164,0.595397949,-0.803100586,96,-93,-4,-28,-31,979,3088,3122,294
5,0.471047163,0.092009306,10.86846585,10.61464837,2.68E-38,80,-122,966,-8.0625,-23.0625,-23.0625,-0.875,4.6875,-125.4375,84,-1.625,2.1875,0.004577637,-0.02355957,0.669189453,-0.742675781,99,-83,-4,-28,-37,979,3050,3107,186
6,0.553055286,0.082008123,12.19391395,10.84882497,2.68E-38,86,-133,976,-0.375,-25.6875,-25.0625,-0.75,4.1875,-125.8125,92.5,-1.5625,2.4375,0.004821777,-0.025512695,0.722473145,-0.690917969,114,-90,-2,-27,-42,979,2959,3114,142
7,0.635063648,0.082008362,12.1938785,11.02251722,2.68E-38,89,-141,970,2.0625,-24,-25.5,-0.4375,4.25,-125.8125,103.5,-1.5,2.8125,0.004821777,-0.02746582,0.785095215,-0.618713379,115,-93,-8,-25,-48,979,2910,3171,130
8,0.724072456,0.089008808,11.23484317,11.04861804,2.68E-38,62,-136,964,10.5625,-23.6875,-27.375,-0.4375,4.9375,-126.0625,114.4375,-1.3125,3.0625,0.004638672,-0.02923584,0.840637207,-0.540771484,98,-73,2,-23,-53,978,2854,3165,45
9,0.823082209,0.099009752,10.10001517,10.93450922,2.68E-38,56,-140,955,16.0625,-19.0625,-29.25,-0.5,4.5,-126.125,126.6875,-1.125,3.3125,0.004150391,-0.030822754,0.893371582,-0.448242188,92,-76,5,-19,-57,978,2813,3131,103
10,0.921092033,0.098009825,10.20305875,10.85667842,2.68E-38,70,-135,970,20.5625,-14.25,-32.5,-0.125,3.875,-126.0625,138.875,-0.875,3.5625,0.00378418,-0.032043457,0.935974121,-0.350585938,90,-69,-13,-15,-61,978,2765,3091,149
11,1.015101433,0.094009399,10.63723422,10.83635551,2.68E-38,87,-133,973,22.375,-9.25,-32,-0.1875,4.875,-126.4375,149.9375,-0.625,3.6875,0.003112793,-0.032958984,0.965270996,-0.259094238,98,-72,-11,-10,-64,978,2732,3091,225
12,1.107110739,0.092009306,10.86846585,10.83902412,2.68E-38,72,-142,970,22.875,-6,-33.1875,-0.375,4.625,-126.4375,159.6875,-0.375,3.8125,0.002441406,-0.033569336,0.983886719,-0.175720215,68,-69,0,-6,-65,978,2715,3134,278
13,1.191119194,0.084008455,11.90356372,10.91410504,2.68E-38,65,-143,978,23.25,-1.1875,-34,-0.9375,3.875,-126.6875,170.75,0,3.875,0.002319336,-0.034179688,0.996154785,-0.08026123,66,-75,0,0,-67,978,2701,3223,350
14,1.279127836,0.088008642,11.36252049,10.94495765,2.68E-38,55,-142,978,22.5625,3.75,-31.5625,-0.9375,4.0625,-126.6875,183,0.375,3.9375,0.002380371,-0.034851074,0.999023438,0.026611328,71,-76,9,6,-68,978,2597,3173,274
15,1.373137236,0.094009399,10.63723422,10.92388991,2.68E-38,88,-145,969,19.0625,6.6875,-31.5625,-0.1875,4.375,-126.4375,194.0625,0.6875,3.875,0.00213623,-0.034545898,0.991882324,0.122558594,54,-75,-4,12,-66,978,2540,3230,301
16,1.464146376,0.09100914,10.98790737,10.92786914,2.68E-38,73,-147,981,16.375,9.75,-31.5625,-0.1875,4.5625,-126.625,205.125,1,3.6875,0.00177002,-0.033752441,0.975463867,0.217468262,66,-87,-7,17,-63,978,2525,3307,294
17,1.557155609,0.093009233,10.7516207,10.91734179,2.68E-38,81,-153,974,12.6875,11.5,-30.75,-0.6875,4.375,-126.6875,216.125,1.3125,3.5,0.001525879,-0.032714844,0.950073242,0.31036377,58,-93,-4,22,-60,978,2563,3438,306
18,1.650165081,0.093009472,10.75159314,10.90799957,2.68E-38,72,-160,970,8.875,12,-29.1875,-0.5,4.75,-126.3125,227.1875,1.5625,3.25,0.001098633,-0.031738281,0.91583252,0.40032959,45,-104,-8,26,-56,978,2553,3326,131
19,1.746174574,0.096009493,10.41563673,10.88092811,2.68E-38,74,-152,984,8,12.1875,-26.375,-0.3125,4.5625,-126.4375,239.4375,1.75,2.9375,0.000610352,-0.029907227,0.867858887,0.495910645,44,-102,5,30,-50,978,2552,3428,199
20,1.839183807,0.093009233,10.7516207,10.87438891,2.68E-38,85,-147,981,7.5625,12.875,-26.375,-0.4375,3.875,-126.6875,250.5,1.875,2.5625,0.000366211,-0.027954102,0.816223145,0.577026367,53,-103,2,32,-44,979,2564,3528,234
21,1.933193207,0.094009399,10.63723422,10.8628563,2.68E-38,81,-149,975,7.5,13.6875,-25.6875,-1.0625,4.6875,-126.3125,262.75,1.9375,2.25,-0.00012207,-0.026123047,0.750061035,0.660827637,48,-111,-4,33,-38,979,2572,3431,47
22,2.032203197,0.099009991,10.09999085,10.8256891,2.68E-38,99,-147,982,6.1875,16.5625,-26.875,-0.5625,5.6875,-126.1875,274.9375,1.9375,1.9375,-0.000671387,-0.024108887,0.683288574,0.729736328,49,-116,0,33,-32,979,2609,3445,12
23,2.130212784,0.098009586,10.20308357,10.79704346,2.68E-38,93,-147,975,4,20.0625,-28.375,-0.25,5.375,-126,285.9375,1.8125,1.5,-0.000915527,-0.020996094,0.601867676,0.798339844,61,-121,-4,31,-26,979,2758,3526,-36
24,2.226222515,0.096009731,10.41561086,10.78059351,2.68E-38,84,-139,970,-3,22.1875,-29.5625,-0.9375,4.25,-125.6875,298.125,1.625,1.1875,-0.001342773,-0.018005371,0.513793945,0.857727051,55,-119,-10,28,-20,980,2791,3539,-82
25,2.317231655,0.09100914,10.98790737,10.78873575,2.68E-38,101,-133,970,-11.5,20.25,-27.5625,-0.6875,4.125,-125.5,309.0625,1.4375,0.9375,-0.001953125,-0.015380859,0.42956543,0.902893066,76,-117,-9,25,-16,980,2894,3637,-93
26,2.400239944,0.083008289,12.04698962,10.83225036,2.68E-38,104,-130,990,-15.0625,17,-23.25,-0.1875,4.375,-125.5,318.8125,1.25,0.6875,-0.00213623,-0.012573242,0.3515625,0.936096191,83,-118,9,21,-12,980,3024,3554,-78
27,2.483248234,0.083008289,12.04698962,10.87285582,2.68E-38,95,-132,967,-16.75,14.875,-22.5,0.25,5.1875,-125.3125,329.6875,0.875,0.5,-0.002380371,-0.008850098,0.260925293,0.965332031,79,-123,-13,15,-8,980,3031,3386,-34
28,2.573257208,0.090008974,11.11000331,10.88115091,2.68E-38,88,-131,974,-18.6875,12,-20.875,-0.375,4.625,-125.3125,340.625,0.5,0.375,-0.002502441,-0.005249023,0.168029785,0.985778809,79,-124,-6,9,-6,980,3114,3351,-61
29,2.664266348,0.09100914,10.98790737,10.88479762,2.68E-38,88,-126,967,-20.1875,8.375,-19.6875,-0.75,4.5625,-125.1875,351.5625,0.1875,0.3125,-0.002929688,-0.001953125,0.073547363,0.997314453,84,-120,-13,3,-6,980,3149,3342,-144
30,2.758275747,0.094009399,10.63723422,10.87636,2.68E-38,82,-125,989,-20.875,5,-19.375,-1.0625,5.3125,-125,2.4375,-0.0625,0.375,-0.003723145,0.001098633,-0.02154541,0.999755859,84,-118,8,-2,-7,980,3215,3265,-222
31,2.856285334,0.098009586,10.20308357,10.85325742,2.68E-38,66,-122,976,-20.75,2.25,-20.5,-0.4375,4.3125,-125.1875,14.5625,-0.4375,0.5,-0.004272461,0.004516602,-0.12689209,0.991882324,73,-113,-4,-7,-9,980,3248,3176,-260
32,2.952295065,0.096009731,10.41561086,10.83902499,2.68E-38,83,-124,971,-22.25,-2.0625,-20.1875,-0.1875,5.375,-124.875,26.625,-0.75,0.625,-0.004150391,0.008178711,-0.230712891,0.972961426,97,-112,-9,-13,-11,980,3218,3247,-171
33,3.044304371,0.092009306,10.86846585,10.8399148,2.68E-38,92,-128,973,-22.5625,-6.1875,-22.5,-0.8125,4.3125,-124.9375,37.5625,-1,0.875,-0.004394531,0.011230469,-0.32208252,0.946655273,110,-113,-7,-18,-15,980,3189,3169,-47
34,3.134313583,0.090009212,11.10997388,10.84767018,2.68E-38,135,-117,980,-22.5,-8.6875,-20.875,-0.8125,3.75,-124.9375,48.4375,-1.1875,1.1875,-0.005065918,0.014099121,-0.410522461,0.911743164,156,-96,0,-21,-20,980,3155,3096,54
35,3.224322319,0.090008736,11.11003274,10.85499418,2.68E-38,66,-130,977,-19.875,-14.5625,-20.875,-0.3125,4.1875,-125.3125,59.375,-1.375,1.4375,-0.005187988,0.017028809,-0.495300293,0.868530273,89,-104,-2,-23,-25,980,3116,3070,169
36,3.318331718,0.094009399,10.63723422,10.84882497,2.68E-38,78,-119,968,-14.6875,-20.0625,-23.375,-0.3125,4.75,-125.375,70.25,-1.5,1.75,-0.004882813,0.019714355,-0.575622559,0.817443848,104,-89,-11,-26,-30,979,3076,3096,289
37,3.413341284,0.095009565,10.52525602,10.8398185,2.68E-38,81,-126,963,-7.6875,-24.5,-22.0625,-0.6875,4.6875,-125.4375,82.4375,-1.5625,2.0625,-0.004882813,0.022521973,-0.658874512,0.75189209,108,-90,-15,-26,-36,979,3038,3097,203
38,3.504350424,0.09100914,10.98790737,10.84366442,2.68E-38,57,-116,973,-0.0625,-24.5625,-22.875,-0.6875,4.5,-125.3125,93.375,-1.5,2.4375,-0.005187988,0.024963379,-0.727478027,0.685668945,83,-74,-5,-26,-42,979,2944,3130,184
39,3.594359398,0.090008974,11.11000331,10.850334,2.68E-38,97,-128,993,8.25,-24.25,-26.5,-0.5,5.4375,-125.75,104.3125,-1.4375,2.75,-0.005004883,0.027038574,-0.789550781,0.613037109,121,-80,14,-24,-47,979,2899,3171,160
40,3.683368206,0.089008808,11.23484317,10.85962569,2.68E-38,65,-137,971,11.6875,-23.25,-27.25,-0.125,4.6875,-125.6875,115.3125,-1.25,3.0625,-0.004760742,0.028747559,-0.844482422,0.534729004,87,-84,-7,-22,-52,979,2842,3162,65
41,3.775377512,0.092009306,10.86846585,10.85984113,2.68E-38,72,-138,970,17.875,-17.5625,-30,-0.1875,4.375,-126,126.25,-1.0625,3.3125,-0.004394531,0.030212402,-0.891723633,0.451538086,91,-82,-8,-19,-56,978,2819,3127,135
42,3.866386414,0.091008902,10.98793615,10.8628563,2.68E-38,81,-131,984,21.1875,-14,-31.5625,-0.3125,3.75,-125.75,137.25,-0.875,3.5,-0.003967285,0.031311035,-0.930847168,0.364074707,96,-71,6,-15,-60,978,2780,3063,173
43,3.957395792,0.091009378,10.98787858,10.86573147,2.68E-38,90,-130,973,22.75,-8.75,-31.875,-0.5,5.25,-126.3125,148.25,-0.625,3.625,-0.003051758,0.032348633,-0.961425781,0.273071289,75,-74,-12,-11,-62,978,2740,3082,264
44,4.05740571,0.100009918,9.999008277,10.84436784,2.68E-38,72,-142,972,22.5,-2.875,-33.5,-0.5,4.0625,-126.5,159.25,-0.375,3.75,-0.002563477,0.033203125,-0.985046387,0.169006348,65,-72,-5,-6,-65,978,2719,3144,322
45,4.154415369,0.097009659,10.3082519,10.83184901,2.68E-38,88,-146,984,21.5,0.375,-33,-0.8125,4.4375,-126.25,171.5,0,3.875,-0.002502441,0.034057617,-0.996704102,0.073608398,88,-79,6,0,-66,978,2729,3241,378
46,4.246424675,0.092009306,10.86846585,10.8326424,2.68E-38,71,-148,975,21.0625,2.6875,-31.5,-0.875,4.375,-126.375,182.5625,0.3125,3.9375,-0.002441406,0.034484863,-0.999145508,-0.022521973,65,-80,-2,6,-67,978,2642,3275,400
47,4.3444345,0.098009825,10.20305875,10.81843909,2.68E-38,86,-138,981,19.5625,6.75,-31.5,-0.375,5,-126.5625,194.8125,0.6875,3.8125,-0.002075195,0.033996582,-0.991027832,-0.129089355,73,-73,3,12,-65,978,2584,3337,420
48,4.442444086,0.098009586,10.20308357,10.80486306,2.68E-38,87,-156,971,16,9.5625,-30.6875,-0.5,4.9375,-126.5625,207.0625,1.0625,3.625,-0.001586914,0.03302002,-0.971618652,-0.234191895,68,-94,-6,18,-62,978,2579,3415,410
49,4.538453817,0.096009731,10.41561086,10.79662854,2.68E-38,85,-148,969,12.25,10.5,-30.25,-0.4375,4.625,-126.625,219.3125,1.3125,3.375,-0.001220703,0.031860352,-0.941101074,-0.336608887,62,-90,1,23,-57,978,2671,3489,301
50,4.630462885,0.092009068,10.86849402,10.79805653,2.68E-38,61,-154,981,9.875,12.1875,-28.25,-0.4375,4.875,-126.5,230.375,1.5625,3.125,-0.000854492,0.030639648,-0.904418945,-0.425537109,34,-100,2,27,-53,978,2652,3486,282
51,4.727472544,0.097009659,10.3082519,10.78800554,2.68E-38,80,-154,963,6.5,13,-26.25,-0.5,5.5625,-126.25,242.625,1.6875,2.75,-0.000305176,0.028564453,-0.853942871,-0.51953125,50,-101,-2,29,-47,979,2615,3534,279
52,4.821481943,0.094009399,10.63723422,10.7850658,2.68E-38,85,-147,957,6.6875,12.25,-26.25,-0.875,4.1875,-126.0625,254.8125,1.8125,2.375,0.00012207,0.026489258,-0.793823242,-0.60760498,56,-108,-6,31,-41,979,2609,3571,250
53,4.921491861,0.100009918,9.999008277,10.76909228,2.68E-38,87,-144,980,7.375,14.0625,-27.1875,-0.6875,3.8125,-126,267.0625,1.875,2.0625,0.000671387,0.024597168,-0.724731445,-0.688598633,65,-121,1,32,-36,979,2660,3494,71
54,5.017501593,0.096009731,10.41561086,10.76232842,2.68E-38,77,-146,978,4.1875,19.5625,-28.25,-0.5625,4.4375,-125.8125,278,1.8125,1.75,0.001037598,0.022216797,-0.655578613,-0.754821777,65,-114,-8,31,-30,979,2768,3571,-58
55,5.106510639,0.089009047,11.23481307,10.77056407,2.68E-38,95,-144,971,-0.875,21.25,-28.25,-0.5,4.25,-125.6875,287.75,1.6875,1.4375,0.001220703,0.019775391,-0.589111328,-0.807800293,65,-119,-7,29,-24,979,2876,3619,-100
56,5.201520205,0.095009565,10.52525602,10.76608334,2.68E-38,108,-141,986,-7.5,21.5,-27.5,-0.5625,3.9375,-125.5,299.9375,1.5625,1.125,0.001831055,0.016967773,-0.500183105,-0.865722656,81,-121,6,26,-19,980,2861,3651,-114
57,5.29652977,0.095009565,10.52525602,10.76176336,2.68E-38,93,-140,991,-12.5,20,-25.0625,-0.6875,5.375,-125.3125,310.875,1.3125,0.875,0.002319336,0.014099121,-0.415466309,-0.909484863,70,-125,11,23,-15,980,2998,3490,-195
58,5.382538319,0.086008549,11.62675123,10.77558515,2.68E-38,95,-133,971,-15.75,15.6875,-22.75,-0.25,5.5625,-125.1875,323,1,0.625,0.002624512,0.010253906,-0.317016602,-0.948364258,68,-120,-14,17,-11,980,3116,3385,-175
59,5.463546276,0.081007957,12.34446629,10.79884694,2.68E-38,93,-132,990,-18.6875,12.0625,-21.25,-0.375,5.4375,-125.1875,331.5,0.75,0.5,0.002868652,0.007568359,-0.24597168,-0.969238281,80,-123,10,12,-8,980,3170,3321,-145
60,5.554555416,0.09100914,10.98790737,10.80194462,2.68E-38,93,-129,970,-19.75,9.5625,-19.5625,-0.3125,4.875,-124.8125,342.375,0.375,0.375,0.003112793,0.003967285,-0.152832031,-0.988220215,86,-122,-10,6,-7,980,3211,3273,-141
61,5.649564981,0.095009565,10.52525602,10.79729151,2.68E-38,99,-120,976,-20.1875,7,-19.25,-0.8125,3.25,-125,354.5,0,0.4375,0.003845215,0.000549316,-0.047790527,-0.998840332,98,-112,-3,0,-7,980,3230,3215,-164
62,5.743574381,0.094009399,10.63723422,10.79467173,2.68E-38,85,-122,985,-20.5,4.6875,-19.25,-1.0625,3.875,-125,5.375,-0.1875,0.5,0.004760742,-0.002258301,0.047241211,-0.998840332,89,-112,5,-4,-9,980,3264,3173,-224
63,5.830583096,0.087008715,11.49310162,10.80509427,2.68E-38,76,-122,965,-21.875,1.6875,-20.0625,-0.1875,5.1875,-124.75,0.25,-0.5,0.625,0.004943848,-0.005554199,0.141784668,-0.989868164,85,-110,-14,-9,-11,980,3272,3084,-250
64,5.921591997,0.091008902,10.98793615,10.80790437,2.68E-38,91,-118,971,-22.1875,-2,-21.375,-0.25,3.875,-124.9375,27.125,-0.8125,0.75,0.004943848,-0.008789063,0.234924316,-0.971984863,94,-112,-10,-14,-13,980,3214,3142,-182
65,6.01760149,0.096009493,10.41563673,10.80164582,2.68E-38,99,-118,973,-22.0625,-8,-21.375,-1.125,4.625,-125,39.25,-1.0625,1,0.005371094,-0.01159668,0.32611084,-0.945251465,96,-105,1,-18,-17,980,3166,3092,-57
66,6.112611055,0.095009565,10.52525602,10.79734984,2.68E-38,63,-124,981,-19.875,-13.75,-21.375,-0.6875,6.125,-125.0625,50.125,-1.25,1.3125,0.00604248,-0.015075684,0.423950195,-0.905578613,72,-100,-18,-22,-23,980,3126,3052,49
67,6.207620621,0.095009565,10.52525602,10.79318536,2.68E-38,76,-122,987,-16.1875,-17.75,-21.375,-0.25,5.0625,-125,62.25,-1.375,1.625,0.00592041,-0.018127441,0.517089844,-0.855712891,100,-93,7,-24,-28,979,3086,3102,192
68,6.306630611,0.099009991,10.09999085,10.78230266,2.68E-38,75,-128,975,-11.375,-23,-22.0625,-0.375,4.75,-125.4375,74.375,-1.5,1.9375,0.00567627,-0.020812988,0.604553223,-0.796264648,100,-94,-3,-25,-33,979,3039,3112,205
69,6.40364027,0.097009659,10.3082519,10.77512119,2.68E-38,54,-123,971,-3.375,-26.1875,-24.0625,-0.8125,4.6875,-125.625,85.3125,-1.5,2.25,0.00579834,-0.023254395,0.67755127,-0.735046387,79,-84,-8,-25,-39,979,2985,3135,176
70,6.496649504,0.093009233,10.7516207,10.77478475,2.68E-38,67,-119,989,6.1875,-23.75,-26.0625,-0.5625,3.75,-125.5625,97.4375,-1.375,2.625,0.00592041,-0.025634766,0.751586914,-0.659118652,92,-73,9,-24,-45,979,2928,3189,187
71,6.582658052,0.086008549,11.62675123,10.78591648,2.68E-38,93,-125,980,9.0625,-24.1875,-26.5,-0.375,3.8125,-125.375,107.1875,-1.3125,2.875,0.00579834,-0.02722168,0.804748535,-0.592956543,116,-76,0,-22,-49,979,2887,3173,107
72,6.667666674,0.085008621,11.76351276,10.79838023,2.68E-38,53,-129,967,15.25,-20,-29.1875,-0.25,4.875,-125.8125,118.1875,-1.125,3.125,0.005371094,-0.028686523,0.857666016,-0.513366699,72,-75,-11,-19,-53,978,2812,3189,54
73,6.756675482,0.089008808,11.23484317,10.80412996,2.68E-38,57,-133,985,19.25,-14.875,-31.875,-0.3125,6.1875,-126.1875,129.125,-0.9375,3.3125,0.004760742,-0.030090332,0.902832031,-0.428955078,74,-75,6,-16,-57,978,2777,3144,117
74,6.851685047,0.095009565,10.52525602,10.80026293,2.68E-38,66,-134,978,21.25,-9.875,-33.0625,-0.0625,5.75,-126,140.125,-0.75,3.5,0.00390625,-0.031188965,0.939697266,-0.340515137,80,-74,0,-13,-60,978,2680,3085,150
75,6.941694021,0.090008974,11.11000331,10.80427915,2.68E-38,62,-140,969,22.375,-7.6875,-31.75,-0.3125,5.3125,-126.1875,151.125,-0.5,3.625,0.003234863,-0.031982422,0.968017578,-0.248901367,72,-78,-9,-9,-62,978,2653,3130,251
76,7.036703587,0.095009565,10.52525602,10.80051178,2.68E-38,45,-142,979,22.1875,-2.0625,-32.1875,-1,4.625,-126.3125,163.375,-0.1875,3.75,0.003112793,-0.032653809,0.989013672,-0.144348145,49,-77,0,-3,-64,978,2628,3201,332
77,7.127712727,0.09100914,10.98790737,10.80290452,2.68E-38,90,-146,960,21.875,2,-33.25,-0.75,5.4375,-126.4375,174.375,0.125,3.8125,0.002868652,-0.033325195,0.99822998,-0.048706055,87,-80,-18,2,-65,978,2694,3092,221
78,7.213721275,0.086008549,11.62675123,10.81272717,2.68E-38,69,-149,978,19.6875,6.75,-32.875,-0.5,5.5,-126.4375,184.1875,0.4375,3.8125,0.002685547,-0.03338623,0.998779297,0.036682129,61,-84,0,7,-65,978,2640,3155,249
79,7.302730322,0.089009047,11.23481307,10.81787174,2.68E-38,76,-150,979,17.1875,10.25,-32.0625,-0.25,4.9375,-126.5,195.1875,0.75,3.6875,0.002258301,-0.032836914,0.990661621,0.132446289,63,-87,0,12,-63,978,2612,3241,281
80,7.394739389,0.092009068,10.86849402,10.81850161,2.68E-38,78,-145,980,13.0625,10.5,-30.875,-0.4375,4.8125,-126.5625,207.4375,1.0625,3.5,0.00177002,-0.031921387,0.97088623,0.237426758,59,-85,1,18,-60,978,2614,3336,275
81,7.483748436,0.089009047,11.23481307,10.82345307,2.68E-38,85,-145,980,11.875,10.75,-29.6875,-0.5,5.125,-126.5,217.25,1.25,3.3125,0.001342773,-0.031066895,0.94708252,0.319519043,63,-88,1,22,-56,978,2710,3471,237
82,7.567756653,0.084008217,11.9035975,10.83544355,2.68E-38,61,-159,974,8.875,11.75,-27.5,-0.6875,4.75,-126.5625,228.25,1.5,3.0625,0.000915527,-0.029968262,0.91204834,0.408996582,36,-106,-4,25,-52,978,2673,3454,210
83,7.65176487,0.084008217,11.9035975,10.84717074,2.68E-38,83,-146,975,8.375,12.25,-27.5,-0.125,4.25,-126.375,236.8125,1.5625,2.875,0.000427246,-0.028564453,0.873840332,0.485351563,59,-107,0,27,-48,979,2630,3522,260
84,7.735773325,0.084008455,11.90356372,10.85864289,2.68E-38,84,-149,979,7.875,11.875,-25.5,-0.6875,4.9375,-126.25,249.0625,1.6875,2.5,-6.10E-05,-0.026794434,0.823303223,0.566955566,55,-106,0,29,-43,979,2627,3590,290
85,7.822782278,0.087008953,11.49307013,10.86569931,2.68E-38,91,-148,970,7.375,14.875,-24.6875,-0.9375,4.8125,-126.0625,258.875,1.75,2.25,-0.000610352,-0.025390625,0.772033691,0.635070801,60,-109,-9,30,-39,979,2623,3478,66
86,7.912791014,0.090008736,11.11003274,10.86847863,2.68E-38,88,-156,977,6.1875,17.25,-26.6875,-0.6875,5.5,-125.75,268.625,1.75,2,-0.001342773,-0.02355957,0.707824707,0.705993652,74,-110,6,30,-34,979,2652,3524,49
87,8.00480032,0.092009306,10.86846585,10.86847848,2.68E-38,89,-142,984,2.75,22,-28.25,-0.5,5.125,-125.6875,280.8125,1.6875,1.625,-0.001647949,-0.020996094,0.637145996,0.770507813,60,-113,4,29,-28,979,2781,3588,24
88,8.105810404,0.101010084,9.900001652,10.85640986,2.68E-38,91,-140,977,-4.5,22.5625,-28.25,-0.625,4.4375,-125.625,292.9375,1.5625,1.3125,-0.00213623,-0.018127441,0.551940918,0.833679199,64,-117,-2,27,-23,980,2787,3579,-37
