Index,Time,Difference,Hz,AveHz,Position-X,Position-Y,Position-Z,Velocity-X,Velocity-Y,Velocity-Z
0,0.0,0.0,0,0,2696,9435,-31924,0,0,0,
1,0.052889347076416016,0.052889347076416016,18.907399226448607,18.907399226448607,3719,2817,-4826,0,0,0,
2,0.10708308219909668,0.054193735122680664,18.45231737093333,18.6770866034791,4182,1642,-2623,0,0,0,
3,0.15891361236572266,0.05183053016662598,19.293647909546305,18.878181392641313,4089,1660,-1512,0,0,0,
4,0.2106010913848877,0.05168747901916504,19.34704533817974,18.993253898621685,4059,1462,-609,0,0,0,
5,0.2647240161895752,0.0541229248046875,18.476458979419228,18.88759498276643,4100,1275,175,0,0,0,
6,0.31551074981689453,0.050786733627319336,19.690181442621412,19.016784700622967,4164,1197,870,1708.02659776,-6217.98446825,21862.7404513,
7,0.3647623062133789,0.049251556396484375,20.30392688405236,19.19057940132974,4284,1073,1433,396.407664653,-2211.33295282,15763.0341944,
8,0.4152343273162842,0.05047202110290527,19.81295732067361,19.26622987002324,4386,1016,1859,1161.1017092,-2517.67508663,13178.6998711,
9,0.4665513038635254,0.05131697654724121,19.486728706228888,19.290483008986854,4518,918,1886,1819.37737078,-2156.29910611,9889.64387821,
10,0.5173635482788086,0.0508122444152832,19.680295793019962,19.328768007078406,4624,808,1892,2076.76090297,-1850.85370551,6804.95891296,
11,0.5696475505828857,0.05228400230407715,19.126309309377778,19.31018572579548,4709,731,1927,2128.02049919,-1819.55514243,4127.188381,
12,0.6215212345123291,0.05187368392944336,19.27759750705507,19.307465833272275,4820,602,1938,2078.65833963,-1826.58223501,1958.4374282,
13,0.6721639633178711,0.05064272880554199,19.74617133764259,19.3405191433213,4963,425,2326,2244.99795501,-2299.46930921,1817.00874349,
14,0.7234485149383545,0.0512845516204834,19.499049292664445,19.351757189235435,5035,368,2570,2006.93920912,-2135.04171183,2655.21551072,
15,0.7735474109649658,0.05009889602661133,19.96051967829439,19.391183768927842,5117,295,2753,1934.28283502,-2012.75272691,3378.12884574,
16,0.8254175186157227,0.051870107650756836,19.278926635992995,19.384129412267637,5084,340,2614,1471.33627922,-1534.1132938,2695.48806354,
17,0.8768215179443359,0.05140399932861328,19.453739262722397,19.388210316571207,5009,405,2512,738.795107153,-770.066857721,2243.74810321,
18,0.927976131439209,0.05115461349487305,19.548578939028143,19.39705062465733,0,0,0,-19412.5373772,-1662.3671943,-9098.03786811,
19,0.9769811630249023,0.04900503158569336,20.4060678596102,19.447662574345568,0,0,0,-19800.0575579,-1447.15415716,-10106.4841954,
20,1.0310297012329102,0.05404853820800781,18.501887990965876,19.398083271591407,0,0,0,-19909.3261299,-1147.79191095,-10711.4275622,
21,1.0670692920684814,0.03603959083557129,27.747262852190712,19.680071534335074,0,0,0,-21378.4367188,-1429.71449339,-10991.9814286,
22,1.1142189502716064,0.047149658203125,21.20906148867314,19.74477277974602,0,0,0,-21515.997369,-1739.66439099,-10790.2146918,
23,1.1827869415283203,0.06856799125671387,14.58406439611259,19.445598520288783,0,0,0,0,0,0,
24,1.251331090927124,0.06854414939880371,14.589137202386128,19.17957619211567,0,0,0,0,0,0,
25,1.31787109375,0.06654000282287598,15.028553615513331,18.96998888477214,0,0,0,0,0,0,
26,1.3872363567352295,0.06936526298522949,14.416437809987661,18.742300022462867,0,0,0,0,0,0,
27,1.4558184146881104,0.06858205795288086,14.581073094759677,18.546269045363317,0,0,0,0,0,0,
28,1.5230472087860107,0.06722879409790039,14.87457886785494,18.384197048178315,0,0,0,0,0,0,
29,1.590374231338501,0.06732702255249023,14.852877226530685,18.23470188874529,0,0,0,0,0,0,
30,1.6614892482757568,0.07111501693725586,14.06172765004459,18.05609036058048,0,0,0,0,0,0,
31,1.7318336963653564,0.07034444808959961,14.215762965774829,17.90010210856879,0,0,0,0,0,0,
32,1.8000199794769287,0.06818628311157227,14.665706273558186,17.77758045180084,4817,592,2454,0,0,0,
33,1.8641977310180664,0.0641777515411377,15.581723821517864,17.701984854352443,4648,733,2371,13579.5503467,2141.52547421,6927.0899036,
34,1.9138588905334473,0.04966115951538086,20.136460963829972,17.765155084408143,0,0,0,0.0,0.0,0.0,
35,1.981109619140625,0.06725072860717773,14.869727372637998,17.666866922377807,0,0,0,0.0,0.0,0.0,
36,2.049973726272583,0.06886410713195801,14.521352873766173,17.5612006820487,0,0,0,0.0,0.0,0.0,
37,2.118037700653076,0.06806397438049316,14.692060067044743,17.468999720161456,0,0,0,-15181.2183304,-1865.742423,-7734.00659803,
38,2.185922861099243,0.06788516044616699,14.73075991023106,17.383962021830357,0,0,0,-13667.3738616,-2155.37543902,-6971.88972158,
39,2.2537126541137695,0.06778979301452637,14.75148330642807,17.3047792622596,0,0,0,0,0,0,
40,2.322141408920288,0.06842875480651855,14.613739543083714,17.225479829240268,0,0,0,0,0,0,
41,2.3896281719207764,0.06748676300048828,14.817720624602558,17.157481018080027,0,0,0,0,0,0,
42,2.4591481685638428,0.0695199966430664,14.384350521969354,17.07908475662459,0,0,0,0,0,0,
43,2.52998685836792,0.07083868980407715,14.116579552300593,16.996135714214365,0,0,0,0,0,0,
44,2.601339817047119,0.07135295867919922,14.014835803739691,16.914360711991137,0,0,0,0,0,0,
45,2.6711513996124268,0.06981158256530762,14.324270604587943,16.84666769788089,0,0,0,0,0,0,
46,2.742929220199585,0.0717778205871582,13.93188023570209,16.770392637639,0,0,0,0,0,0,
47,2.8110814094543457,0.06815218925476074,14.673042948948927,16.719544244406315,0,0,0,0,0,0,
48,2.8770978450775146,0.06601643562316895,15.147742990974853,16.683478485837448,0,0,0,0,0,0,
49,2.9456186294555664,0.06852078437805176,14.594111977508463,16.63487578127403,0,0,0,0,0,0,
50,3.014957904815674,0.06933927536010742,14.42184093800502,16.58397947120156,0,0,0,0,0,0,
51,3.0845041275024414,0.06954622268676758,14.378926149647924,16.534262199640917,0,0,0,0,0,0,
52,3.1523265838623047,0.06782245635986328,14.744378981115627,16.495752777076916,0,0,0,0,0,0,
53,3.219700813293457,0.06737422943115234,14.84247031013348,16.461156819656757,0,0,0,0,0,0,
54,3.289172887802124,0.06947207450866699,14.394272908537443,16.41750125092501,0,0,0,0,0,0,
55,3.3567991256713867,0.0676262378692627,14.78716000634596,16.38465631719907,0,0,0,0,0,0,
56,3.4266068935394287,0.06980776786804199,14.325053364982326,16.34269752552683,0,0,0,0,0,0,
57,3.497579574584961,0.07097268104553223,14.089928480487501,16.296984467255154,0,0,0,0,0,0,
58,3.56599497795105,0.06841540336608887,14.616591451621334,16.264745283888665,0,0,0,0,0,0,
59,3.6361281871795654,0.07013320922851562,14.258580364427523,16.22605061285381,0,0,0,0,0,0,
60,3.708038330078125,0.07191014289855957,13.906244094253232,16.181062507715733,0,0,0,0,0,0,
61,3.7767739295959473,0.06873559951782227,14.548501897342334,16.151350633403148,0,0,0,0,0,0,
62,3.8450512886047363,0.06827735900878906,14.646143531580858,16.12462236426971,0,0,0,0,0,0,
63,3.9147112369537354,0.06965994834899902,14.355451356207752,16.09314102284182,0,0,0,0,0,0,
64,3.9847018718719482,0.06999063491821289,14.287625782628542,16.06142744373843,0,0,0,0,0,0,
65,4.0516533851623535,0.06695151329040527,14.936182184000142,16.042833337629002,0,0,0,0,0,0,
66,4.118963956832886,0.06731057167053223,14.856507309056004,16.023446840439966,0,0,0,0,0,0,
67,4.1860620975494385,0.06709814071655273,14.903542621611058,16.00549596223679,0,0,0,0,0,0,
68,4.257858991622925,0.07179689407348633,13.928179107253152,15.970467818165377,0,0,0,0,0,0,
69,4.3253045082092285,0.06744551658630371,14.826782425491452,15.952634055947085,0,0,0,0,0,0,
70,4.392213582992554,0.0669090747833252,14.945655775966818,15.937294186023347,0,0,0,0,0,0,
71,4.460412979125977,0.06819939613342285,14.662886428548955,15.917808582359685,0,0,0,0,0,0,
72,4.529423236846924,0.06901025772094727,14.490599412679218,15.896063634389243,0,0,0,0,0,0,
73,4.598482370376587,0.06905913352966309,14.480343857347535,15.874802624071332,0,0,0,0,0,0,
74,4.667577266693115,0.06909489631652832,14.4728489846621,15.854049279065821,0,0,0,0,0,0,
75,4.733988285064697,0.06641101837158203,15.057742292172264,15.842878242140603,0,0,0,0,0,0,
76,4.802139043807983,0.06815075874328613,14.67335094194406,15.826280602598667,0,0,0,0,0,0,
77,4.871699810028076,0.06956076622009277,14.37591985165839,15.805571566930402,0,0,0,0,0,0,
78,4.9421470165252686,0.07044720649719238,14.195027024100014,15.782614264445808,0,0,0,0,0,0,
79,5.009299278259277,0.06715226173400879,14.891531188644343,15.770668832438448,0,0,0,0,0,0,
80,5.078591585159302,0.06929230690002441,14.431616506040264,15.75239880162378,0,0,0,0,0,0,
81,5.148948669433594,0.07035708427429199,14.213209804167414,15.731366770240175,0,0,0,0,0,0,
82,5.219040632247925,0.07009196281433105,14.266970988513098,15.711699865551973,0,0,0,0,0,0,
83,5.288719892501831,0.06967926025390625,14.351472681484726,15.693778775781755,0,0,0,0,0,0,
84,5.357795000076294,0.06907510757446289,14.476995188491037,15.678091453443788,0,0,0,0,0,0,
85,5.42840576171875,0.07061076164245605,14.162147195969787,15.658372592451006,0,0,0,0,0,0,
86,5.493890285491943,0.06548452377319336,15.27078372690798,15.653752720018005,0,0,0,0,0,0,
87,5.564041614532471,0.07015132904052734,14.25489742927446,15.636115979572942,0,0,0,0,0,0,
88,5.632563352584839,0.06852173805236816,14.593908859050595,15.623437232999063,0,0,0,0,0,0,
89,5.70012354850769,0.06756019592285156,14.801614861240507,15.613696658083922,0,0,0,0,0,0,
90,5.771742105484009,0.07161855697631836,13.962861613236127,15.593212301444773,0,0,0,0,0,0,
91,5.841059684753418,0.06931757926940918,14.426354909386081,15.579364860374918,0,0,0,0,0,0,
92,5.908253192901611,0.06719350814819336,14.882390093318667,15.571438290852551,0,0,0,0,0,0,
93,5.976706027984619,0.06845283508300781,14.608598734988437,15.560410628287192,0,0,0,0,0,0,
94,6.04534649848938,0.06864047050476074,14.568664705330688,15.549150081552622,0,0,0,0,0,0,
95,6.1169514656066895,0.07160496711730957,13.965511615440194,15.530612026946619,0,0,0,0,0,0,
96,6.186580657958984,0.06962919235229492,14.361792320387885,15.517457107181945,0,0,0,0,0,0,
97,6.254224061965942,0.06764340400695801,14.783407409496082,15.509517893656849,0,0,0,0,0,0,
98,6.324031114578247,0.06980705261230469,14.325200142080385,15.496444945390765,0,0,0,0,0,0,
99,6.392462730407715,0.06843161582946777,14.613128564609804,15.48698900176235,0,0,0,0,0,0,
100,6.460083246231079,0.06762051582336426,14.788411295355422,15.479676683476436,0,0,0,0,0,0,
101,6.525362730026245,0.06527948379516602,15.31874858474372,15.478066764817804,0,0,0,0,0,0,
102,6.59566593170166,0.07030320167541504,14.224103258012772,15.46470076808216,0,0,0,0,0,0,
103,6.6657936573028564,0.07012772560119629,14.259695312048468,15.452023464176106,0,0,0,0,0,0,
104,6.73557710647583,0.06978344917297363,14.33004547426826,15.440399294072456,0,0,0,0,0,0,
105,6.803026437759399,0.06744933128356934,14.825943874755659,15.434307210274802,0,0,0,0,0,0,
106,6.8702802658081055,0.06725382804870605,14.869042090448556,15.428773776164418,0,0,0,0,0,0,
107,6.937920570373535,0.06764030456542969,14.784084820799142,15.4224884696596,0,0,0,0,0,0,
108,7.0068137645721436,0.0688931941986084,14.51522188268924,15.413567939549024,0,0,0,0,0,0,
109,7.074637174606323,0.06782341003417969,14.744171658370595,15.407150544941612,0,0,0,0,0,0,
110,7.144103050231934,0.06946587562561035,14.395557401299419,15.397314292159999,0,0,0,0,0,0,
111,7.212271213531494,0.06816816329956055,14.669604571940207,15.390436204304741,0,0,0,0,0,0,
112,7.281075716018677,0.06880450248718262,14.533932574925412,15.382342440636242,0,0,0,0,0,0,
113,7.349406957626343,0.06833124160766602,14.63459431546186,15.375390239173244,0,0,0,0,0,0,
114,7.419321537017822,0.06991457939147949,14.303168362075139,15.365286358221645,0,0,0,0,0,0,
115,7.4878692626953125,0.06854772567749023,14.588376056484991,15.358174130113607,0,0,0,0,0,0,
116,7.557957649230957,0.07008838653564453,14.267698964527234,15.348061656815888,0,0,0,0,0,0,
117,7.624227046966553,0.0662693977355957,15.08992135389309,15.345817914296077,0,0,0,0,0,0,
118,7.69333291053772,0.06910586357116699,14.470552111257163,15.337955782255689,0,0,0,0,0,0,
119,7.762956142425537,0.06962323188781738,14.363021837470592,15.329211941524434,0,0,0,0,0,0,
120,7.828884840011597,0.06592869758605957,15.167901636380074,15.327853513275366,2614,883,2989,0,0,0,
121,7.899385452270508,0.07050061225891113,14.18427397945898,15.317647269031688,1051,1181,2958,3055.69440654,3433.65851011,8600.13706427,
122,7.948265552520752,0.04888010025024414,20.45822318040367,15.349260690127334,18,1453,2843,56.4855088308,4559.63579618,8921.57231145,
123,7.998486280441284,0.05022072792053223,19.912096885221775,15.377909730341374,-529,1689,2766,-1796.79765641,5736.8454474,9394.97602575,
124,8.049896955490112,0.051410675048828125,19.451213178006974,15.403923886930096,-901,1759,2606,-3261.35966999,6367.07176416,9432.96703661,
125,8.099895477294922,0.04999852180480957,20.000591295557175,15.432297904385498,-1016,1850,2567,-14483.0663686,3858.16120618,-1683.70633817,
126,8.150454044342041,0.05055856704711914,19.779041582963153,15.459261449056065,-854,1963,2693,-7537.52098486,3094.14247252,-1048.5265412,
127,8.201680421829224,0.05122637748718262,19.521192968411842,15.484631620366786,-752,2013,2568,-3031.58346886,2204.78797735,-1082.70838173,
128,8.253109216690063,0.051428794860839844,19.44435996810503,15.509306449155996,-645,2064,2475,-456.665357947,1476.28887267,-1145.60016519,
129,8.304528951644897,0.051419734954833984,19.447785969304956,15.533692609313942,-537,2120,2393,1423.03208664,1411.30380021,-832.708336411,
130,8.356709241867065,0.05218029022216797,19.164324225532305,15.556362706590383,-451,2154,2307,2191.45992646,1179.12180114,-1008.45943518,
131,8.4086012840271,0.05189204216003418,19.27077752916366,15.579285492920967,-359,2189,2263,1913.77513023,873.763998852,-1662.47132525,
132,8.461279153823853,0.05267786979675293,18.98330368821482,15.60047808378312,-301,2232,2253,1733.1993513,841.620084111,-1210.54943605,
133,8.511634588241577,0.05035543441772461,19.85882976809371,15.625670794624249,-250,2251,2262,1525.79140381,722.336689905,-822.768529144,
134,8.563788175582886,0.052153587341308594,19.174136449247538,15.647280999086531,-216,2279,2256,1240.10682976,614.258523151,-529.26677781,
135,8.613556623458862,0.04976844787597656,20.09305177633848,15.672968310480481,-198,2316,2259,987.532213414,632.332879735,-187.357890292,
136,8.663418769836426,0.04986214637756348,20.05529389825808,15.698190704287958,-177,2361,2305,720.294234609,680.717628312,166.221746448,
137,8.715398788452148,0.051980018615722656,19.238161636547105,15.719303651546523,-133,2377,2352,659.585932471,569.28547743,388.684567349,
138,8.766578197479248,0.05117940902709961,19.539107993030903,15.741603723979862,-96,2399,2393,607.524960291,583.855156643,516.790712975,
139,8.820408582687378,0.05383038520812988,18.5768687356332,15.758907163646365,-55,2405,2423,622.667537114,487.305029046,645.872538497,
140,8.871734857559204,0.05132627487182617,19.48319846895642,15.780453569429245,-20,2452,2462,683.576585739,522.283234048,779.584533174,
141,8.922537803649902,0.05080294609069824,19.68389782385268,15.802678912979419,2,2497,2489,691.32316702,525.251121312,710.63387001,
142,8.9754478931427,0.05291008949279785,18.899986932286716,15.820937483074122,46,2489,2519,685.594909042,428.975585546,639.633239162,
143,9.026760816574097,0.051312923431396484,19.488267927999924,15.841784545507922,108,2521,2545,790.88070396,472.977675898,589.283661774,
144,9.081131935119629,0.05437111854553223,18.39211748352328,15.857054057667211,176,2500,2559,882.533806837,362.946803678,519.58700316,
145,9.129533767700195,0.048401832580566406,20.66037475617205,15.882519709057027,233,2496,2587,977.796842217,170.051624733,483.101206629,
146,9.17942762374878,0.049893856048583984,20.042547904620825,15.905131124109802,275,2497,2592,1070.69461927,0.0,403.961706171,
147,9.229268074035645,0.049840450286865234,20.064024186064312,15.927590229343279,319,2497,2590,1078.47986654,31.6038056128,280.483774814,
148,9.278652906417847,0.04938483238220215,20.24913220846308,15.950591264991877,362,2487,2583,1028.75152276,-137.706896747,153.907708129,
149,9.329530477523804,0.05087757110595703,19.655026336013798,15.970792995313396,0,0,0,-704.011581611,-10000.1645115,-10236.168394,
150,9.38287901878357,0.053348541259765625,18.744654987486594,15.986564432911823,0,0,0,-916.189343249,-9814.62918777,-10172.4542102,
151,9.424458026885986,0.04157900810241699,24.050597780899682,16.0221414928295,457,2461,2580,745.940033664,-147.548578087,-49.1828593624,
152,9.484113454818726,0.05965542793273926,16.762933980248828,16.026801105249458,551,2487,2593,903.336438282,-38.9369154432,11.681074633,
153,9.531608819961548,0.047495365142822266,21.054686009738468,16.05185471728342,613,2503,2632,993.674025517,63.3417705509,193.984172312,
154,9.591526985168457,0.05991816520690918,16.68942960030241,16.055837640673154,684,2513,2654,2622.59924926,9635.36829442,10175.9918239,
155,9.640607357025146,0.04908037185668945,20.37474375540421,16.077825209534222,732,2512,2671,2709.23809768,9297.27609475,9885.75814056,
156,9.690035820007324,0.049428462982177734,20.23125826025719,16.099011695901254,765,2564,2695,1196.56745286,400.15080404,446.77031519,
157,9.738393783569336,0.04835796356201172,20.679117281637645,16.12175513634406,787,2604,2690,913.02576699,452.644130245,375.269065246,
158,9.789229154586792,0.050835371017456055,19.671342610180144,16.140188109292374,821,2637,2667,841.670076204,542.229760631,141.627176284,
159,9.843595504760742,0.054366350173950195,18.393730621982293,16.152634464012817,852,2689,2636,662.107623028,693.636557458,-70.9401024672,
160,9.893399953842163,0.0498044490814209,20.078527489887264,16.172397835575524,890,2730,2609,621.545193916,857.575014391,-243.897481157,
161,9.946505546569824,0.05310559272766113,18.830408411563205,16.186589274614423,942,2740,2592,680.403634847,676.559546515,-395.941098244,
162,9.997303009033203,0.050797462463378906,19.686022716605653,16.20437030403326,1004,2733,2562,834.319143373,495.977739609,-492.13295093,
163,10.048603534698486,0.0513005256652832,19.492977645582563,16.221159431472277,1063,2748,2535,944.353253181,433.153764889,-515.101774463,
164,10.098486185073853,0.04988265037536621,20.047050276499238,16.240057865544394,1119,2758,2477,1041.51311727,269.15507525,-620.226912534,
165,10.152842283248901,0.05435609817504883,18.397199828059616,16.25160673206086,1121,2798,2369,895.623353235,263.646701385,-930.517769594,
166,10.202480554580688,0.04963827133178711,20.14574587652139,16.270552941702952,1163,2842,2253,861.692733131,397.704338368,-1321.78206575,
167,10.254245042800903,0.051764488220214844,19.318263048324397,16.28593809714388,1181,2933,2248,688.576938122,778.053037426,-1221.54326876,
168,10.307995557785034,0.05375051498413086,18.60447291147326,16.298027978205646,1244,3008,2237,691.138530588,992.795679298,-1137.89658627,
169,10.35770559310913,0.04971003532409668,20.116662430035635,16.316354860716825,1290,3051,2215,667.762324514,1144.17755019,-1023.12122236,
170,10.407517671585083,0.04981207847595215,20.075452191435286,16.334346514168224,0,0,0,-4373.84222478,-10917.0477653,-9243.2044875,
171,10.436965227127075,0.029447555541992188,33.958676080056996,16.38407298278124,1337,3100,2149,761.820597507,1129.59605837,-455.341046786,
172,10.488110780715942,0.05114555358886719,19.55204176766735,16.399521667548488,0,0,0,-5245.53108075,-13027.2164774,-9984.71961856,
173,10.514568090438843,0.02645730972290039,37.79673785707849,16.453362469288034,0,0,0,-6344.41002114,-15340.8242312,-11408.7180203,
174,10.56293249130249,0.04836440086364746,20.676364891178427,16.472698291243596,0,0,0,-6640.2933895,-15705.0659933,-11401.7440758,
175,10.630398035049438,0.06746554374694824,14.82238109205537,16.46222459620122,0,0,0,0.0,0.0,0.0,
176,10.685409307479858,0.05501127243041992,18.178092522125045,16.47105833155112,1523,3076,2089,754.187081073,-97.3144620739,-243.286155185,
177,10.737374544143677,0.05196523666381836,19.243634094642086,16.48447665416854,1674,3128,2057,6010.59788768,11231.2725165,7385.78247011,
178,10.789790630340576,0.052416086196899414,19.078112704629085,16.497076365825784,1787,3131,2015,6301.73555184,11041.261339,7105.76224787,
