Index,Time,Difference,Hz,AveHz,Position-X,Position-Y,Position-Z,Velocity-X,Velocity-Y,Velocity-Z
0,0.0,0.0,0,0,12627,1009,14688,0,0,0,
1,0.05311942100524902,0.05311942100524902,18.825506398143617,18.825506398143617,8695,3850,10607,0,0,0,
2,0.10759615898132324,0.05447673797607422,18.356458869457136,18.588024135203227,4301,3383,9783,0,0,0,
3,0.1602623462677002,0.05266618728637695,18.98751459949841,18.719306623583545,1441,3427,8242,0,0,0,
4,0.2105846405029297,0.05032229423522949,19.871907972350012,18.994737652503918,-106,3450,6706,0,0,0,
5,0.2609279155731201,0.05034327507019043,19.863626246122518,19.162380495079088,-852,3327,5569,0,0,0,
6,0.311248779296875,0.05032086372375488,19.87247288698528,19.27718403765075,-1147,3273,4837,-38661.9135457,-2266.60476691,-22666.0476691,
7,0.361295223236084,0.050046443939208984,19.98143966461817,19.3747371949779,-1201,3063,4362,-21894.9261751,-1273.42355072,-21572.5908389,
8,0.4122767448425293,0.05098152160644531,19.614950054248194,19.40444155552754,-1118,2952,3975,-10150.1246502,-1884.05987058,-16924.8073006,
9,0.4647822380065918,0.0525054931640625,19.045626271432724,19.36390693112579,-933,2572,3677,-3245.45485277,-3445.59777598,-11886.91989,
10,0.5178661346435547,0.05308389663696289,18.83810464855154,19.310009539208355,-699,2216,3347,592.399412889,-4301.67155372,-8603.34310744,
11,0.5688502788543701,0.05098414421081543,19.613941068915047,19.33724990370635,-450,1899,2902,2686.51610696,-5295.94423381,-7458.262076,
12,0.6220376491546631,0.05318737030029297,18.80145595381112,19.291436806610925,-218,1734,2426,3749.03036664,-5068.62803384,-7383.64475057,
13,0.6757328510284424,0.0536952018737793,18.62363796211603,19.23837205815056,-130,1739,2053,3746.848557,-4600.1288458,-7288.9098447,
14,0.7286844253540039,0.05295157432556152,18.8851797654157,19.212706506247375,-73,1720,1804,3263.47395039,-3233.11605318,-7107.54268498,
15,0.7812583446502686,0.05257391929626465,19.020837962732017,19.199794924065447,-32,1686,1691,2512.145657,-1996.15771845,-6237.05128633,
16,0.8326416015625,0.051383256912231445,19.46159235698344,19.21595074036065,-6,1643,1573,1686.57803398,-972.44138896,-5048.33830441,
17,0.8842301368713379,0.05158853530883789,19.384151808409356,19.22576407557304,-14,1594,1558,782.744002351,-537.177256515,-3330.4989904,
18,0.9350519180297852,0.050821781158447266,19.67660277160094,19.25026798290213,-5,1605,1501,484.572442604,-519.461658472,-2139.87190654,
19,0.9891762733459473,0.05412435531616211,18.475970644982247,19.2079010707883,0,1617,1512,280.880058619,-396.310219695,-1123.52023448,
20,1.0420520305633545,0.05287575721740723,18.91225871032614,19.192899599444754,-9,1664,1524,87.8657289792,-84.0454798931,-637.98159737,
21,1.095029354095459,0.05297732353210449,18.876000774066956,19.177568091174045,1,1716,1554,26.5655635431,277.040876949,-72.1065296169,
22,1.147249460220337,0.05222010612487793,19.14971213594671,19.176300153390137,45,1713,1661,222.434244585,448.638561113,388.317410039,
23,1.1988184452056885,0.05156898498535156,19.391500536302104,19.18555732269681,78,1715,1740,316.730166507,419.762871274,912.030238496,
24,1.2483339309692383,0.049515485763549805,20.19570210368687,19.2256249746939,123,1740,1820,477.017129503,477.017129503,1194.48191778,
25,1.3000051975250244,0.05167126655578613,19.353115699619334,19.23069234461177,144,1763,1941,597.143536292,386.386994071,1627.50885382,
26,1.351658582687378,0.051653385162353516,19.35981537041311,19.235626757392094,142,1815,2023,551.834471175,387.458245719,1835.5345176,
27,1.4038527011871338,0.05219411849975586,19.15924684128304,19.232787013315647,141,1860,2111,374.571554555,573.562692912,1755.80416198,
28,1.4547979831695557,0.050945281982421875,19.62890303257207,19.24665852161593,134,1892,2232,216.98692592,685.83367657,1906.38513487,
29,1.5080883502960205,0.053290367126464844,18.765117485996527,19.229642609670467,112,1971,2238,-42.2907855961,888.106497518,1607.04985265,
30,1.5590367317199707,0.050948381423950195,19.62770890951037,19.242651176603903,108,2002,2335,-138.876733804,921.987204978,1519.92869775,
31,1.6099517345428467,0.05091500282287598,19.64057634404574,19.25523562903741,110,2026,2372,-124.212130368,819.023734617,1354.68854683,
32,1.6604795455932617,0.05052781105041504,19.791080975232273,19.271541215261962,96,2060,2356,-175.02784195,777.901519779,952.92936173,
33,1.7122256755828857,0.05174612998962402,19.32511668409825,19.273160349476683,74,2078,2322,-235.135832864,728.921081879,352.703749296,
34,1.7668051719665527,0.05457949638366699,18.321898629670237,19.243774321849028,62,2095,2318,-192.522020922,477.454611886,308.035233475,
35,1.8198297023773193,0.0530245304107666,18.859195776997407,19.23256882458729,58,2091,2307,-190.586941606,339.244756058,-106.728687299,
36,1.8707809448242188,0.050951242446899414,19.62660677101612,19.2433005583038,43,2068,2243,-254.872293746,159.770691602,-490.724267063,
37,1.922987461090088,0.05220651626586914,19.154696990455314,19.240895090925726,46,2056,2272,-189.787726004,-15.1830180803,-318.843379687,
38,1.9748892784118652,0.051901817321777344,19.26714808077467,19.24158504245779,59,2047,2271,-57.6689887805,-119.182576813,-196.074561854,
39,2.028336763381958,0.05344748497009277,18.709954276792683,19.227576359151104,78,2043,2323,61.3888083134,-199.513627018,19.1840025979,
40,2.0815718173980713,0.05323505401611328,18.784615109009156,19.21624786888175,92,2042,2303,129.037845272,-185.966306422,-15.1809229732,
41,2.1350855827331543,0.05351376533508301,18.686780751426802,19.202977309937758,95,2043,2276,196.135636081,-94.295978885,124.470692128,
42,2.1892292499542236,0.054143667221069336,18.469380655672737,19.18483411496453,105,2031,2278,220.210909148,-93.3097072659,22.3943297438,
43,2.241128921508789,0.05189967155456543,19.267944671839327,19.186758774703254,108,2030,2252,184.217314891,-63.9121296561,-71.4312037333,
44,2.2952721118927,0.05414319038391113,18.469543314853386,19.16984037405362,131,2021,2292,198.408711136,-82.3583329243,-116.050378211,
45,2.3475451469421387,0.05227303504943848,19.130322145140912,19.16896041748804,125,2035,2245,124.258938863,-26.3579567286,-218.394498608,
46,2.3993380069732666,0.05179286003112793,19.30768062236748,19.171954875181758,132,2015,2294,140.879420829,-106.611453601,68.5359344575,
47,2.4500198364257812,0.05068182945251465,19.730937316241327,19.183518150026938,118,2017,2183,49.7867511573,-53.6165012464,-363.826258457,
48,2.5002028942108154,0.05018305778503418,19.9270439893008,19.198441898912815,129,2016,2302,81.9788994604,-54.6525996403,195.187855858,
49,2.553678512573242,0.05347561836242676,18.700111015502046,19.18800653987749,155,1895,2325,93.1435817837,-489.003804364,128.072424953,
50,2.6039199829101562,0.05024147033691406,19.903876086708934,19.20181892230026,145,1944,2237,78.208258214,-355.847574874,-31.2833032856,
51,2.6541950702667236,0.05027508735656738,19.89056712935519,19.214865015507296,152,1964,2293,78.364058652,-199.828349563,-3.9182029326,
52,2.7056503295898438,0.05145525932312012,19.434359347416123,19.21903929392192,155,1997,2226,144.075782428,-77.8788013123,167.439422821,
53,2.7568252086639404,0.05117487907409668,19.540837576813594,19.22501282759445,161,2014,2311,126.01730913,-7.87608182063,35.4423681928,
54,2.8085553646087646,0.05173015594482422,19.331084195195693,19.226966532497844,147,2051,2254,-31.2751389661,609.865209838,-277.566858324,
55,2.8592565059661865,0.050701141357421875,19.72342186441953,19.235769818215264,132,2075,2259,-50.7165082724,511.066352591,85.8279370764,
56,2.910972833633423,0.05171632766723633,19.336253077256423,19.23755500325361,123,2105,2238,-112.992972242,549.379623658,-214.297016321,
57,2.9631540775299072,0.052181243896484375,19.163973974705755,19.236259238843004,129,2133,2299,-100.809935683,527.313509728,283.043280957,
58,3.0140068531036377,0.05085277557373047,19.664610018191023,19.24348643742306,116,2165,2149,-175.223846095,587.97335023,-630.805845942,
59,3.065183639526367,0.05117678642272949,19.540109293690687,19.24843889911819,117,2173,2210,-116.546079116,473.954055071,-170.93424937,
60,3.1167068481445312,0.05152320861816406,19.40872913041869,19.251088704643426,133,2189,2233,3.88851596515,443.290820027,-101.101415094,
61,3.1682093143463135,0.05150246620178223,19.416545919997038,19.253778380039243,146,2203,2213,89.7319194851,382.336004762,-97.5346950925,
62,3.2212584018707275,0.05304908752441406,18.850465609607017,19.24713644952974,160,2213,2268,119.661349445,308.803482438,-119.661349445,
63,3.2717173099517822,0.05045890808105469,19.81810621810622,19.255942378752913,171,2222,2185,213.040323688,220.78724455,139.444575505,
64,3.3220407962799072,0.050323486328125,19.87143723468769,19.2652661194494,204,2065,2190,338.960024059,-420.7779609,-77.9218446112,
65,3.371255397796631,0.04921460151672363,20.319172952364344,19.280651368769746,227,2065,2306,370.359273728,-488.559041939,287.61943598,
66,3.426295280456543,0.05503988265991211,18.168643384996578,19.262788112998162,233,2094,2120,339.451129378,-425.289346002,-362.861552093,
67,3.479734420776367,0.05343914031982422,18.712875881145713,19.254342975131866,283,2090,2324,473.038009277,-473.038009277,215.366898533,
68,3.531111001968384,0.0513765811920166,19.46412113843398,19.257395183015785,293,2120,2152,466.828832347,-390.299515568,-126.273372684,
69,3.581881046295166,0.05077004432678223,19.696654065603795,19.263621295120483,321,2104,2326,444.39032315,148.130107717,516.556273064,
70,3.633297920227051,0.051416873931884766,19.448868115256563,19.26624282867109,325,2119,2148,378.739131476,208.692990814,-610.62023238,
71,3.6875221729278564,0.054224252700805664,18.44193234930727,19.254121513153287,383,2113,2310,577.512383466,73.1515685723,731.515685723,
72,3.739304542541504,0.05178236961364746,19.311592100961825,19.25491737323528,425,2116,2201,545.646131418,99.907038147,-472.637142003,
73,3.790658950805664,0.051354408264160156,19.47252502367732,19.257865439064265,471,2111,2190,682.064514125,-34.4864080176,145.609278296,
74,3.843315601348877,0.05265665054321289,18.990953463311268,19.254208520900143,536,2083,2283,818.978664469,-79.9932649016,-163.795732894,
75,3.8966224193573,0.05330681800842285,18.759326430663954,19.247438403942237,571,2070,2171,941.17536139,-187.469889057,87.9960703739,
76,3.948823928833008,0.05220150947570801,19.156534170057867,19.246236694696137,609,2058,2181,862.927308065,-210.004433379,-492.555852834,
77,3.9997496604919434,0.05092573165893555,19.636438543432053,19.251204834286927,658,2043,2196,891.47911105,-279.304614192,-19.1304530268,
78,4.053016424179077,0.05326676368713379,18.77343263941419,19.244925713766037,693,2036,2219,846.920854211,-286.121910206,110.63380528,
79,4.103896379470825,0.05087995529174805,19.654105320375248,19.24999870737151,723,2047,2133,721.750093056,-138.946541979,-578.943924911,
80,4.157131195068359,0.05323481559753418,18.784699238186516,19.244040239794376,786,2028,2291,825.703313708,-161.300182213,460.857663465,
81,4.209373712539673,0.05224251747131348,19.141497163667562,19.242767578155863,811,2041,2072,770.903903543,-64.8780512882,-415.982799436,
82,4.2616126537323,0.05223894119262695,19.142807590846438,19.241542266443386,882,2027,2296,859.075930489,-61.3625664635,383.516040397,
83,4.312834739685059,0.05122208595275879,19.522828510386752,19.244883008445857,967,1897,2304,1049.11323979,-532.214380768,325.45483716,
84,4.365511417388916,0.05267667770385742,18.98373328746911,19.24173183132843,966,1949,1990,932.910032608,-376.235321793,-548.996438942,
85,4.417309284210205,0.05179786682128906,19.305814338844495,19.24248327003836,1036,1949,2324,961.836391884,-303.940299835,126.962403729,
86,4.469005107879639,0.051695823669433594,19.34392237164942,19.24365668062606,1052,1981,2016,929.638451855,-231.445257723,-216.015573875,
87,4.521282196044922,0.0522770881652832,19.128838944478396,19.242329106576207,1118,1975,2254,905.743842103,-199.570677074,-161.191700713,
88,4.573935031890869,0.052652835845947266,18.992329357640305,19.239451235410467,1146,1986,2078,687.062261837,341.611962589,-867.464084778,
89,4.626677751541138,0.052742719650268555,18.959962751843197,19.23626515167482,1195,1979,2187,875.01237572,114.630442234,752.739904003,
90,4.679635524749756,0.052957773208618164,18.88296919246717,19.232267026781486,1236,1999,2113,759.624380835,189.906095209,-801.403721781,
91,4.731265544891357,0.05163002014160156,19.368576600539363,19.23375450745063,1282,2003,2133,876.2599559,83.8161696948,445.749629741,
92,4.78121018409729,0.04994463920593262,20.02216886334452,19.241990303208127,1333,1987,2104,829.814853199,46.3152476204,-578.940595255,
93,4.831364154815674,0.05015397071838379,19.938600786267415,19.249221755992462,1390,1995,2101,953.653964686,35.1757609925,89.8936114253,
94,4.886063098907471,0.054698944091796875,18.281888555687285,19.23839256619885,1450,1990,2134,988.240068374,42.6299637338,-205.398916172,
95,4.937709331512451,0.05164623260498047,19.362496537715817,19.2396906382703,1496,2008,1974,1007.53819432,34.8763221109,-538.645419269,
96,4.989309072494507,0.051599740982055664,19.37994224327134,19.24114112898659,1560,1987,2170,1068.72267177,-61.5092185191,142.240067825,
97,5.039993762969971,0.05068469047546387,19.729823554591768,19.246055563140178,1599,1977,2005,1019.98945347,-38.3454681758,-379.62013494,
98,5.093719005584717,0.053725242614746094,18.61322446081477,19.239380871334582,1648,1939,2035,993.951981924,-215.741515456,-254.266786073,
99,5.144948959350586,0.05122995376586914,19.519830226085986,19.242173398061492,1712,1914,2139,1011.38957923,-293.38018329,19.301327848,
100,5.196637392044067,0.051688432693481445,19.346688376684178,19.24321295788267,1754,1911,2046,995.522466243,-374.285578394,277.820223138,
101,5.247082948684692,0.050445556640625,19.82335148215366,19.24879042084099,1815,1881,2082,985.082824562,-409.485409426,-339.950151221,
102,5.300129413604736,0.053046464920043945,18.851397572058445,19.24481310554029,1874,1856,2061,1065.83772645,-468.968599639,217.043318841,
103,5.35390830039978,0.053778886795043945,18.59465785915368,19.23828243235113,1924,1839,2027,1056.66489419,-382.849599345,-30.6279679476,
104,5.4075024127960205,0.053594112396240234,18.658765959339828,19.232538806436782,1969,1820,2043,975.03132225,-356.626242379,-364.21403477,
105,5.460439205169678,0.05293679237365723,18.89045322091761,19.229222422363225,2016,1818,1989,982.394439484,-348.712530046,-213.727034544,
106,5.512731075286865,0.0522918701171875,19.1234315728042,19.22821892676564,2083,1806,2018,1008.45872184,-282.217925887,-240.825963423,
107,5.56550931930542,0.05277824401855469,18.947201040800838,19.225554007940048,2149,1785,2054,1039.69253616,-268.429709336,-26.4649009204,
108,5.6162707805633545,0.05076146125793457,19.699984500420367,19.229842046391997,2211,1771,1985,1099.78347034,-260.575874505,-160.943922489,
109,5.666690111160278,0.05041933059692383,19.833662767054108,19.23521453649453,2291,1737,1991,1248.96421067,-321.937979768,-201.69608371,
110,5.716692924499512,0.0500028133392334,19.9988747276221,19.24189412528754,2374,1711,2056,1404.18417025,-419.686330215,262.794244154,
111,5.768685579299927,0.05199265480041504,19.233486034493037,19.241818343906115,2424,1707,1962,1342.67655093,-389.809321237,-220.498201912,
112,5.819694519042969,0.05100893974304199,19.604406698855325,19.244996388301505,2445,1789,2115,1164.07259924,15.7307108006,239.893339709,
113,5.871250629425049,0.05155611038208008,19.396342986098908,19.246325379754005,2456,1854,1850,958.151659287,324.598317228,-527.961118383,
114,5.922618627548218,0.051367998123168945,19.467373394661482,19.248242571241246,2512,1903,2380,858.562080316,644.89278431,1511.22465721,
115,5.974734544754028,0.05211591720581055,19.187995791207282,19.247717055642745,2464,2015,1947,349.431504503,1180.30197077,-423.200377676,
116,6.0235185623168945,0.04878401756286621,20.4985167265352,19.25784718680797,2517,1972,1873,365.020724763,1040.11281787,-349.320908644,
117,6.0750885009765625,0.05156993865966797,19.391141932501156,19.258978693263877,2573,1967,2193,502.360033592,698.594421714,306.12564547,
118,6.129922866821289,0.05483436584472656,18.236738669171103,19.249834388403922,2605,1965,1862,575.000301094,428.355929003,46.3087490814,
119,6.181645154953003,0.05172228813171387,19.3340247719405,19.250538815650398,2696,1922,2022,711.418326293,73.4616749976,-1384.17261311,
120,6.2344794273376465,0.052834272384643555,18.92710838752183,19.247797895331967,2761,1887,1970,1126.2752453,-485.398085517,87.2199684913,
121,6.285857677459717,0.05137825012207031,19.46348888146416,19.24956087279713,2828,1849,1974,1180.43826024,-466.861434114,383.357762972,
122,6.3381452560424805,0.05228757858276367,19.1250011399389,19.248533296659794,2895,1847,1994,1237.13881568,-461.045521373,-764.567156277,
123,6.388156890869141,0.050011634826660156,19.995347152037528,19.254379956730403,0,0,0,-10091.4361634,-7612.15818087,-7213.14938055,
124,6.436610221862793,0.048453330993652344,20.638415966303857,19.26479866356016,3001,1818,1957,1207.1391723,-411.614668589,-257.259167868,
125,6.48751163482666,0.05090141296386719,19.64582006220257,19.267788180751353,3055,1840,2002,1166.35449694,-186.458031823,126.950149326,
126,6.5396223068237305,0.05211067199707031,19.18992716225614,19.267167748896757,3117,1868,1983,1147.52523478,75.4428355044,35.7360799758,
127,6.5906126499176025,0.05099034309387207,19.611556607081905,19.269832221377445,3176,1890,1918,1110.36604272,169.9136649,-300.312524009,
128,6.644922971725464,0.05431032180786133,18.41270621702064,19.262826754297603,3244,1892,2030,12458.1908775,7265.99788538,7795.970247,
129,6.697718620300293,0.0527956485748291,18.94095492704603,19.260289557254687,3285,1895,1874,1080.8394378,293.044495459,-315.879131468,
130,6.7477803230285645,0.050061702728271484,19.975349328964537,19.26559457727766,3371,1873,2074,1214.46199675,126.826727509,276.712860019,
131,6.799704551696777,0.05192422866821289,19.258832064503686,19.26554293705462,3415,1868,1807,1140.16849993,0.0,-673.388107344,
132,6.849769353866577,0.050064802169799805,19.9741126831661,19.27072185656708,3504,1838,2013,1280.95989423,-203.079007621,371.009725462,
133,6.903142929077148,0.05337357521057129,18.735863131798183,19.26658644713593,3552,1834,1857,1199.46856079,-225.873949759,-673.727470834,
134,6.955547332763672,0.05240440368652344,19.082365787079162,19.26519849398499,3624,1840,1962,1305.30828906,-211.775681116,338.841089785,
135,7.00553822517395,0.04999089241027832,20.00364369959509,19.270467972737084,3674,1843,1902,1177.64987577,-116.598997601,-668.50091958,
136,7.056677341461182,0.051139116287231445,19.554502944152024,19.272526349042245,3720,1848,1887,1179.2681512,-77.3290590953,309.316236381,
137,7.107438325881958,0.05076098442077637,19.700169557600265,19.275580556374333,3767,1839,1928,1029.8812567,3.91589831446,-332.851356729,
138,7.15884256362915,0.05140423774719238,19.453649034113308,19.27685918127544,3808,1853,1937,1007.40189097,74.7681090958,314.81309093,
139,7.210749626159668,0.05190706253051758,19.265201135434562,19.276775260054233,3843,1854,1889,853.753734726,54.5778643204,-284.584578242,
140,7.263261318206787,0.05251169204711914,19.04337797956867,19.275087851935407,3890,1849,1930,836.463711863,23.2351031073,108.430481167,
141,7.315119743347168,0.05185842514038086,19.28326973472484,19.275145855026405,3936,1860,1909,832.043627731,46.224645985,84.7451843059,
142,7.367717027664185,0.0525972843170166,19.01238843383543,19.27327006002276,3996,1867,1914,877.081843615,107.241448128,-53.6207240638,
143,7.418680906295776,0.0509638786315918,19.621740472871192,19.275663936245692,4044,1877,1925,907.992293783,92.3381993678,-46.1690996839,
144,7.469385623931885,0.0507047176361084,19.722030742320296,19.278694025198607,4097,1875,1872,985.812902002,81.5042163072,-65.9796036773,
145,7.520864963531494,0.051479339599609375,19.42526861800667,19.279697309166135,4170,1874,1972,1088.72517087,97.2076045416,163.30877563,
146,7.574106216430664,0.05324125289916992,18.782428014867225,19.27620181550652,4231,1892,1861,1143.47074772,124.037504837,-186.056257256,
