Index,Time,Difference,Hz,AveHz,Position-X,Position-Y,Position-Z,Velocity-X,Velocity-Y,Velocity-Z
0,0.0,0.0,0,0,19802,16503,13614,0,0,0,
1,0.05065298080444336,0.05065298080444336,19.742174776657535,19.742174776657535,16935,9433,2742,0,0,0,
2,0.10316681861877441,0.052513837814331055,19.04259984836034,19.386078070222062,10881,9836,6195,0,0,0,
3,0.15718507766723633,0.054018259048461914,18.51225895863953,19.085781198333944,4910,10088,6308,0,0,0,
4,0.20797133445739746,0.05078625679016113,19.690366315670875,19.233419886620926,1506,8261,6035,0,0,0,
5,0.25916528701782227,0.051193952560424805,19.53355718763244,19.292707204480514,-125,7197,4961,0,0,0,
6,0.3144547939300537,0.055289506912231445,18.08661454672468,19.080644072911227,-921,5366,5949,-67608.2014556,-15398.8886268,12142.6692467,
7,0.3647902011871338,0.05033540725708008,19.8667310843967,19.18911192575885,-2371,6810,2173,-51066.1770782,-11660.598539,-15498.6541057,
8,0.4180278778076172,0.0532376766204834,18.783689737790816,19.137479638814238,-2349,3851,5514,-27645.8895656,-23753.6042459,-3023.9476946,
9,0.46863460540771484,0.050606727600097656,19.760218599830395,19.20472772634865,-2379,5063,2904,-14837.4951706,-12213.7218933,-11957.8371632,
10,0.5208344459533691,0.0521998405456543,19.157146641576308,19.19995898446262,-1986,4007,3498,-7213.88947701,-12365.560146,-5671.10172212,
11,0.569544792175293,0.04871034622192383,20.529519446320716,19.31366970802614,-1352,3703,3122,-1683.96712541,-6497.53440731,-11045.4177808,
12,0.621950626373291,0.05240583419799805,19.08184489959328,19.294136047380828,-1246,2955,2467,4413.43600128,-15123.3740311,1153.37794167,
13,0.6722207069396973,0.05027008056640625,19.892548186371226,19.338886567750713,-990,2203,1932,5340.24666625,-6475.88411035,-14075.6170408,
14,0.7254354953765869,0.05321478843688965,18.791768780326077,19.298752389738446,-649,1732,1606,6764.38368181,-13024.3711238,-5075.24278554,
15,0.7786552906036377,0.05321979522705078,18.790000895977062,19.26398007052843,-341,1439,1405,6293.32343374,-9824.47086799,-8007.24981569,
16,0.8287250995635986,0.05006980895996094,19.972115347986744,19.306764098765075,-104,1259,1266,4828.44900822,-9455.71264109,-7180.77031991,
17,0.8793468475341797,0.050621747970581055,19.75435539249163,19.332530784263966,155,1086,1342,5411.19530728,-7218.78945704,-4345.1782446,
18,0.9318907260894775,0.05254387855529785,19.031712684620096,19.315569407514086,275,1193,1074,4901.7891022,-3913.68141756,-3324.69173888,
19,0.9930214881896973,0.06113076210021973,16.35837613737856,19.13352351985602,356,1054,1406,3750.59132015,-2530.24966673,-746.386332368,
20,1.045133113861084,0.05211162567138672,19.18957597496477,19.13631836437855,362,1297,1090,2598.79469726,-524.934348521,-1164.46704073,
21,1.096219539642334,0.05108642578125,19.574671445639186,19.156746655739887,408,1174,1567,1888.66563152,-313.548005233,1110.32881853,
22,1.1482365131378174,0.0520169734954834,19.22449409877392,19.15981572461931,370,1423,1319,795.023570122,1246.15322387,-85.0490330828,
23,1.19667387008667,0.04843735694885254,20.64522226214677,19.219940014512233,382,1403,1658,420.324079702,824.935109696,2294.10525744,
24,1.2494068145751953,0.05273294448852539,18.963477380209603,19.209115653943446,363,1528,1652,27.4141995784,1856.33294288,963.41329947,
25,1.3007276058197021,0.051320791244506836,19.48528024900699,19.220011851939834,369,1592,1798,27.3827830103,1153.98871258,2769.57291019,
26,1.352175235748291,0.05144762992858887,19.437241353742348,19.228277010717218,374,1649,1920,-133.373395949,1863.30479634,1384.7296697,
27,1.4051592350006104,0.052983999252319336,18.87362249191157,19.21490413859627,340,1729,1964,-115.115993921,1174.18313799,2474.9938693,
28,1.4561972618103027,0.05103802680969238,19.59323395727546,19.228164160390744,353,1762,2124,-112.190869115,1388.84558663,1802.79120716,
29,1.507016658782959,0.05081939697265625,19.677525897012462,19.24331747163293,361,1798,2239,-7.75610715652,1047.07446613,2276.41745044,
30,1.5599920749664307,0.05297541618347168,18.876680393348185,19.23086692645254,372,1823,2335,11.5486310399,889.244590069,2067.20495613,
31,1.6150398254394531,0.05504775047302246,18.166046594221417,19.19457310692935,381,1847,2394,26.6818384125,754.714857952,1806.74162964,
32,1.6674211025238037,0.052381277084350586,19.090790749329777,19.191312831272732,377,1873,2409,140.135696331,545.392980313,1685.41580722,
33,1.72304368019104,0.05562257766723633,17.97831100138021,19.15215521195677,373,1883,2398,74.0648086323,448.092092226,1014.68787826,
34,1.7763450145721436,0.053301334381103516,18.761256385253308,19.140425830051576,371,1884,2342,36.9766179955,317.998914761,380.859165353,
35,1.829888105392456,0.0535430908203125,18.676546024508408,19.126852563749274,371,1878,2288,-3.72355785289,204.795681909,-175.007219086,
36,1.8819811344146729,0.0520930290222168,19.19642644649281,19.128778361105407,381,1872,2290,0.0,93.2140055338,-387.77026302,
37,1.9337177276611328,0.05173659324645996,19.328678934004305,19.13412669839469,389,1877,2268,45.5680237565,15.1893412522,-535.424279139,
38,1.9867579936981201,0.053040266036987305,18.85360075876422,19.126637527335372,396,1886,2271,87.4470770597,11.4061404861,-482.859947243,
39,2.0396413803100586,0.05288338661193848,18.90953027153993,19.121008416720475,394,1900,2254,87.7221106904,61.024077002,-335.632423511,
40,2.0892422199249268,0.049600839614868164,20.160949043698118,19.14569771686757,378,1909,2223,27.019061423,119.655843445,-250.891284642,
41,2.1427812576293945,0.05353903770446777,18.677959912539688,19.134010928095943,391,1913,2266,38.2658802385,156.890108978,-91.8381125724,
42,2.1961143016815186,0.05333304405212402,18.750101700976778,19.12468762115045,395,1932,2246,22.9274199867,210.168016545,-84.0672066179,
43,2.2480757236480713,0.051961421966552734,19.245046847326353,19.127469572164422,401,1946,2304,19.1906954293,230.288345151,126.658589833,
44,2.2995245456695557,0.051448822021484375,19.43679098391043,19.134390229867478,387,1966,2221,-26.630863912,251.091002599,-125.545501299,
45,2.3531012535095215,0.05357670783996582,18.664827316135405,19.12369896233108,404,1982,2267,98.8969209179,277.672124116,167.364020015,
46,2.4047234058380127,0.05162215232849121,19.371528595642875,19.129019116429166,416,1986,2315,95.8730927918,279.949430952,187.911261872,
47,2.4579854011535645,0.05326199531555176,18.775113363205413,19.121350345670194,397,2008,2216,7.62232603572,289.648389357,-114.334890536,
48,2.510262966156006,0.052277565002441406,19.12866446540307,19.121502666114278,411,2012,2354,37.9617536353,250.547573993,189.808768177,
49,2.560223340988159,0.04996037483215332,20.015862638332802,19.1389552682883,353,2023,2114,-131.323512287,220.160005894,-413.282818081,
50,2.6097803115844727,0.04955697059631348,20.178795999172507,19.158700745061395,369,2004,2236,-136.547461779,85.8298331184,-120.942037576,
51,2.663607597351074,0.05382728576660156,18.57793841465575,19.146964459299067,333,1991,2076,-322.922336343,19.4531527917,-929.860703444,
52,2.7147023677825928,0.051094770431518555,19.571474566859692,19.154954376259795,378,1960,2344,-74.3496599925,-187.830719981,500.881919949,
53,2.7663681507110596,0.0516657829284668,19.355169772314053,19.15869367798246,396,1958,2304,-58.2115068341,-209.561424603,-194.038356114,
54,2.817228078842163,0.050859928131103516,19.66184453549095,19.167777151430762,406,1950,2308,204.388798976,-281.516647646,748.1401321,
55,2.868903875350952,0.05167579650878906,19.35141918576754,19.17108498215956,393,1939,2226,93.5233711349,-253.29246349,-38.9680713062,
56,2.9202401638031006,0.05133628845214844,19.47939810514583,19.17650496494433,358,1938,2081,97.30570429,-206.288093095,19.461140858,
57,2.9701015949249268,0.04986143112182617,20.05558158883778,19.191262715523624,382,1940,2301,15.7067977344,-78.533988672,-168.848075645,
58,3.025182008743286,0.055080413818359375,18.15527391093566,19.172400150592665,415,1916,2311,73.0931125333,-161.574248758,26.9290414596,
59,3.0791163444519043,0.053934335708618164,18.541064553061883,19.16134156681314,374,1915,2073,-121.781548495,-133.198568666,-894.333246758,
60,3.132694959640503,0.05357861518859863,18.664162865724776,19.152838298333837,348,1902,2013,-169.447810571,-139.323755359,-802.052970037,
61,3.184392213821411,0.0516972541809082,19.343387107187986,19.15593177725972,0,0,0,-1336.50274321,-7235.0344032,-7768.88885091,
62,3.2135777473449707,0.02918553352355957,34.26355043990426,19.29313832572554,326,1874,2034,-237.79731077,-280.261116265,-1133.78360671,
63,3.2623133659362793,0.048735618591308594,20.518873647339685,19.311449555343096,343,1883,2122,-314.415592204,-144.107146427,-825.340929535,
64,3.329127311706543,0.06681394577026367,14.966935247896432,19.224257292579473,0,0,0,-1523.17068371,-7799.12261848,-8442.60114262,
65,3.36794114112854,0.03881382942199707,25.76401285035965,19.299624689468178,0,0,0,-1516.76179253,-8289.88772816,-8773.68243785,
66,3.4215826988220215,0.053641557693481445,18.64226251061163,19.289318952519373,380,2005,2135,1461.50367018,7711.35489136,8211.34298906,
67,3.470461130142212,0.04887843132019043,20.458921716395707,19.30579179178258,369,2016,2080,165.26720876,545.766131255,176.797479139,
68,3.519261598587036,0.04880046844482422,20.491606574036076,19.32223510389271,0,0,0,-1443.19051814,-7922.82141593,-8928.42647085,
69,3.9462525844573975,0.42699098587036133,2.341969814565617,17.48494261917281,403,1959,2099,557.48507784,2709.95848012,2903.62575282,
70,3.9962546825408936,0.050002098083496094,19.99916080181572,17.51640112073455,428,1905,2120,595.818153139,2651.94762086,2951.24879592,
71,4.047934532165527,0.05167984962463379,19.349901504421922,17.539809361001957,422,1873,2081,58.1844979912,-182.865565115,-74.8086402744,
72,4.097112417221069,0.04917788505554199,20.334343351093487,17.57335231939648,0,0,0,-510.858495793,-2791.03178189,-2879.63596544,
73,4.144105434417725,0.04699301719665527,21.279757284262544,17.615381933509372,413,1776,2077,1669.9279291,7181.09443602,8398.16055383,
74,4.193626880645752,0.049521446228027344,20.193271323203728,17.645823557055504,397,1722,2089,-24.3195345955,-960.621616522,-40.5325576592,
75,4.252355337142944,0.05872845649719238,17.02752055211611,17.637284293929845,388,1684,2065,-156.539839492,-864.882613194,-215.242279302,
76,4.302113771438599,0.0497584342956543,20.097095380015524,17.66573457553776,370,1621,2080,-202.925488755,-983.408137812,-3.90241324529,
77,4.352614879608154,0.050501108169555664,19.801545673859984,17.69051527180644,345,1570,2051,1323.68104355,6023.70793732,7869.187885,
78,4.402166366577148,0.04955148696899414,20.18102909052417,17.718548892700746,339,1503,2067,-283.87909242,-1047.28367879,-38.3620395163,
79,4.45365834236145,0.05149197578430176,19.42050163677867,17.73822640335542,323,1448,2034,-294.08403484,-1088.90575062,-218.57597184,
80,4.503020763397217,0.0493624210357666,20.258325645645066,17.76585190330003,307,1402,2049,-322.537306284,-1122.90765892,-63.7110728463,
81,4.552495956420898,0.04947519302368164,20.212149541717668,17.792437549726227,286,1366,2027,-336.199909824,-1020.60686911,-212.12613358,
82,4.601250171661377,0.048754215240478516,20.511046994963078,17.821243562245215,267,1304,2040,-313.435841623,-1068.8965881,-44.2024904852,
83,4.651153564453125,0.04990339279174805,20.038717691462423,17.845035398172023,226,1241,2018,-457.732592427,-1061.29149749,-198.485814415,
84,4.701124429702759,0.04997086524963379,20.011660694775113,17.868065663029288,210,1194,2024,-456.326738853,-1025.72558999,-40.3828972436,
85,4.753519296646118,0.052394866943359375,19.085839097196942,17.88148836588765,204,1160,2009,-409.902650646,-963.072247149,-159.185495396,
86,4.804442882537842,0.05092358589172363,19.637265964071183,17.900098326191856,407,914,3728,476.395041842,-1779.59139597,6697.09062953,
87,4.859231948852539,0.054789066314697266,18.25181678140312,17.904064040520687,306,1298,1420,149.943494083,-23.0682298589,-2383.71708542,
88,4.912375211715698,0.05314326286315918,18.817060641815353,17.91394105851802,582,1368,3481,1348.1606898,480.944965183,5540.33452017,
89,4.966522455215454,0.05414724349975586,18.468160803135046,17.919983409425473,514,1554,2439,1141.76710634,1352.09262592,1558.66233266,
90,5.01816987991333,0.05164742469787598,19.36204962492787,17.934825275694813,514,1526,2384,1160.3587897,1369.97199042,1403.65982625,
91,5.068126916885376,0.0499570369720459,20.017199990455055,17.95535145278567,474,1549,2336,256.588277376,2431.8441214,-5330.90868816,
92,5.118358135223389,0.050231218338012695,19.907938391437455,17.97451400809113,448,1479,2231,551.502027768,702.970894549,3149.77566563,
93,5.170103311538696,0.05174517631530762,19.32547285000115,17.988035131220983,411,1433,2143,-671.968879936,255.426767227,-5257.86176231,
94,5.219183683395386,0.04908037185668945,20.37474375540421,18.01047935888079,382,1412,2087,-525.33705731,-565.135319228,-1400.89881949,
95,5.2723894119262695,0.05320572853088379,18.7949686549173,18.01839594494059,0,0,0,-2013.09594264,-5976.62336277,-9337.00530593,
96,5.33905029296875,0.06666088104248047,15.001301878424584,17.980725921691914,349,1476,2144,-453.119861719,-264.621999244,-695.9921076,
97,5.406175374984741,0.06712508201599121,14.89756094095751,17.942444199800637,0,0,0,-1518.18048594,-5012.02888105,-7560.40326817,
98,5.456810474395752,0.05063509941101074,19.749146572872082,17.959209039755375,0,0,0,-1383.68236433,-4824.3718445,-7214.67471232,
99,5.524407863616943,0.0675973892211914,14.793470746744545,17.920472645041574,0,0,0,-1212.60962422,-4482.21149056,-6624.91174277,
100,5.592889785766602,0.0684819221496582,14.602393867021314,17.879844558083544,0,0,0,0.0,0.0,0.0,
101,5.659489870071411,0.06660008430480957,15.014996008462775,17.846131421510183,0,0,0,-1102.18722345,-4661.39926022,-6771.02981972,
102,5.7310216426849365,0.07153177261352539,13.979801750514955,17.797873810194485,0,0,0,0,0,0,
103,5.799529075622559,0.06850743293762207,14.596956229706167,17.760062697667106,0,0,0,0,0,0,
104,5.868157386779785,0.06862831115722656,14.57124593535477,17.722769371233774,0,0,0,0,0,0,
105,5.939100503921509,0.07094311714172363,14.095800132411606,17.679444880696984,0,0,0,0,0,0,
106,6.005698919296265,0.06659841537475586,15.015372278347785,17.649902438402766,0,0,0,0,0,0,
107,6.0745673179626465,0.06886839866638184,14.52044797562791,17.614423283053977,0,0,0,0,0,0,
108,6.145939826965332,0.07137250900268555,14.010996866627917,17.572576862231816,254,1653,2137,0,0,0,
109,6.196720838546753,0.0507810115814209,19.692400148363078,17.58994843239744,205,1770,2088,636.595710655,5496.46052615,6483.96021389,
110,6.246041297912598,0.04932045936584473,20.27556135644019,17.6111547704242,186,1900,2156,619.116781887,6324.31121282,7176.42893413,
111,6.299288511276245,0.05324721336364746,18.780325519958808,17.621037645966027,165,2017,2088,587.394531213,7180.45314822,7433.21079498,
112,6.349456787109375,0.05016827583312988,19.932915440949333,17.639304235817725,171,2108,2189,672.179851267,8286.28728931,8604.68827149,
113,6.400081634521484,0.050624847412109375,19.753145957350615,17.656024790447642,222,2161,2419,-125.884637092,1998.41861383,1109.35836437,
114,6.452531576156616,0.052449941635131836,19.065798146287804,17.667484250871798,0,0,0,-794.226253142,-6857.46569786,-8089.48495883,
115,6.499610185623169,0.047078609466552734,21.2410691677386,17.693368789158246,161,2331,2094,-99.8394210971,1721.23161971,-247.601764321,
116,6.556070327758789,0.05646014213562012,17.711609680293567,17.693525877666254,218,2298,2381,205.214042926,1088.02162382,1134.48518071,
117,6.608324766159058,0.052254438400268555,19.137130368525032,17.7049409858232,213,2294,2288,161.349859348,714.549377114,380.324668464,
118,6.661640882492065,0.05331611633300781,18.756054806281973,17.713353523772835,278,2375,2234,214.242019091,818.710572954,-707.763813068,
119,6.713777303695679,0.05213642120361328,19.18044961495546,17.724746385986773,276,2321,2301,1030.97058964,8669.86499473,8595.15698099,
120,6.765136241912842,0.051358938217163086,19.470807511083258,17.73800197201498,286,2277,2324,478.318048184,-206.633396816,880.105208659,
121,6.817454814910889,0.052318572998046875,19.113671162960262,17.74855914488105,288,2249,2289,267.775962059,-187.443173441,-351.934121563,
122,6.869384765625,0.05192995071411133,19.256709976585096,17.759960194761348,288,2214,2203,288.81716802,-308.071645888,-327.326123756,
123,6.920593738555908,0.0512089729309082,19.527827698267114,17.77304154045978,329,2178,2223,197.276391635,-762.028414746,-42.5498099604,
124,6.972147464752197,0.05155372619628906,19.397240001479894,17.785051252413115,369,2135,2232,359.40080436,-718.80160872,-266.652209686,
125,7.022198677062988,0.050051212310791016,19.979536035821464,17.800692596222703,423,2102,2235,535.302982214,-683.78118166,-347.751572387,
126,7.074221849441528,0.05202317237854004,19.22220338128606,17.811146254898272,467,2100,2238,699.092163059,-581.925878747,-199.18268333,
127,7.128302097320557,0.05408024787902832,18.491039505530598,17.816304397050985,497,2111,2217,804.974826215,-396.710081819,53.9217586938,
128,7.180383682250977,0.05208158493041992,19.200644552887212,17.826345452318964,545,2101,2261,829.82682876,-295.817897289,145.988053208,
129,7.231136798858643,0.050753116607666016,19.70322350310512,17.839518679879113,590,2079,2208,846.183542192,-214.417549153,-91.8932353512,
130,7.2850730419158936,0.05393624305725098,18.540408884959664,17.844707836424305,627,2084,2151,774.005582254,-68.2946101989,-318.708180928,
131,7.3370561599731445,0.05198311805725098,19.237014580361688,17.854572343968467,722,2052,2199,977.226490387,-183.948515838,-149.458169118,
132,7.392107725143433,0.055051565170288086,18.16478781133203,17.856882625102536,831,2042,2198,1262.02011047,-260.716729408,-71.7915631704,
133,7.444927930831909,0.05282020568847656,18.93214891849926,17.864511414435995,970,2042,2223,1590.33724581,-220.776229418,-142.194859625,
134,7.497968435287476,0.053040504455566406,18.85351601129151,17.871507616564458,1107,2029,2162,1942.7381375,-187.885699951,-172.854843955,
135,7.548001050949097,0.050032615661621094,19.986962240054897,17.8855301011153,1295,1946,2303,2533.3630861,-523.359439943,576.453875879,
136,7.599035263061523,0.05103421211242676,19.59469850924771,17.89700867175709,1408,1972,2082,2652.13613191,-309.287012468,-452.332255734,
137,7.651069164276123,0.05203390121459961,19.21823996774282,17.905994189631894,1578,1942,2141,2898.98333301,-388.083444847,-221.207563563,
138,7.703729152679443,0.05265998840332031,18.989749719294434,17.91340236202386,1774,1956,2171,3125.96110741,-334.368974176,-202.176589036,
139,7.754910945892334,0.051181793212890625,19.538197808750095,17.924125882274165,1991,1945,2181,3417.91290452,-324.779054276,73.4619289434,
140,7.807885408401489,0.05297446250915527,18.8770202213411,17.93059102139951,2226,1937,2132,3566.1933526,-34.474479241,-655.015105579,
141,7.8618597984313965,0.05397439002990723,18.527305254323387,17.934687671247,2417,1890,1976,3829.39215129,-311.209272949,-402.294913813,
142,7.911413669586182,0.049553871154785156,20.18005812051346,17.94875175670438,2648,1848,1977,4121.63608896,-362.087656413,-631.72740055,
143,7.961462497711182,0.050048828125,19.98048780487805,17.961524034197318,2914,1832,2010,4415.36261514,-480.267512524,-623.573141261,
144,8.011807441711426,0.05034494400024414,19.862967768822042,17.973472409022317,3166,1846,1917,4609.60488056,-388.383730362,-1035.68994763,
145,8.061298370361328,0.049490928649902344,20.20572309471047,17.98717692091835,3392,1839,1877,4677.12935855,-393.103496687,-1022.87134342,
146,8.10919189453125,0.047893524169921875,20.879649542015134,18.00426009137369,3597,1880,1787,4773.02291626,-40.449346748,-764.492653537,
147,8.161226511001587,0.052034616470336914,19.217975798285444,18.011998539905665,3735,1988,1978,4353.13641169,560.661543364,4.00472530974,
148,8.212260723114014,0.05103421211242676,19.59469850924771,18.02183405885338,4017,2009,1915,4402.02322369,706.399012325,-379.14071283,
149,8.261292934417725,0.04903221130371094,20.394756292060528,18.035917765274338,4238,2094,1739,4288.1165498,992.026963013,-712.019352485,
