Index,Time,Difference,Hz,AveHz,0x6103 Range,0x6103 Smoothed Range,0x6103 Velocity,
0,9.5367431640625e-07,9.5367431640625e-07,1048576.0,0.0,1400,1260.0,1189085184.0,
1,0.015064001083374023,0.015063047409057617,66.3876288007091,66.38342592152952,1363,1352.7,118914057.11987083,
2,0.030022144317626953,0.01495814323425293,66.85321729705606,66.61749336891091,1419,1412.3700000000001,11894995.930315584,
3,0.04461789131164551,0.014595746994018555,68.51310867541123,67.23760159451965,1410,1410.237,1189368.068416834,
4,0.06024289131164551,0.015625,64.0,66.39787554862532,1410,1410.0237,118924.52076168338,
5,0.07657003402709961,0.0163271427154541,61.24770374264394,65.2996967224855,1400,1401.00237,11395.169903684171,
6,0.09334588050842285,0.016775846481323242,59.60951068032915,64.27707326043814,1410,1409.1002369999999,1573.9558908503607,
7,0.10967087745666504,0.016324996948242188,61.25575417688982,63.827336502946785,1438,1435.1100237,1591.3197793447303,
8,0.12399101257324219,0.014320135116577148,69.8317433361637,64.52080545172059,1419,1420.61100237,-752.1107645934378,
9,0.1395418643951416,0.015550851821899414,64.30515906477578,64.49677334476944,1447,1444.3611002369998,1299.3173625679285,
10,0.15413713455200195,0.014595270156860352,68.51534704412173,64.87729273717784,1443,1443.1361100237,54.394169625889376,
11,0.1696019172668457,0.01546478271484375,64.66304884065121,64.85775737247702,1480,1476.31361100237,1936.2619465376295,
12,0.18538498878479004,0.015783071517944336,63.35902355020468,64.73016007747302,1400,1407.631361100237,-3722.8500654734953,
13,0.20159602165222168,0.01621103286743164,61.686384092714064,64.48539953048589,1461,1455.6631361100237,2294.330863170329,
14,0.21809101104736328,0.0164949893951416,60.62447062224471,64.19338391236855,1424,1427.1663136110024,-1325.4112142602871,
15,0.23351693153381348,0.015425920486450195,64.82595323101653,64.2351708780825,1471,1466.6166313611002,2169.122886648896,
16,0.2488999366760254,0.015383005142211914,65.00680398629903,64.28286087041482,1447,1448.96166313611,-816.011464242757,
17,0.26375603675842285,0.014856100082397461,67.3124167482467,64.45350107975156,1429,1430.9961663136112,-1169.9720547090847,
18,0.27904200553894043,0.015285968780517578,65.41947156627258,64.50641710818729,1415,1416.5996166313612,-964.6304108022542,
19,0.29526591300964355,0.016223907470703125,61.63743240065836,64.34877567252218,1391,1393.5599616631362,-1374.5576991548414,
20,0.31119680404663086,0.015930891036987305,62.77112797258265,64.26801220298884,1378,1379.5559961663137,-928.5960092076937,
21,0.3272581100463867,0.01606130599975586,62.26143752041089,64.16953271845085,1341,1344.8555996166315,-2037.306515461136,
22,0.34265804290771484,0.015399932861328125,64.93534803071587,64.20395042624192,1275,1281.985559961663,-3877.9697666763686,
23,0.35788989067077637,0.015231847763061523,65.65191666536228,64.26557608791958,1485,1464.6985559961663,10408.115573734653,
24,0.3737368583679199,0.015846967697143555,63.103555147667265,64.2163047680289,1846,1807.8698555996166,20530.607684034137,
25,0.39131689071655273,0.017580032348632812,56.882716719106,63.8868410566733,1771,1774.6869855599616,354.2821516500703,
26,0.40770411491394043,0.016387224197387695,61.02314754193764,63.771738005362465,1738,1741.6686985559961,-1777.963604317519,
27,0.42373180389404297,0.01602768898010254,62.39202677575307,63.71955031903042,1738,1738.3668698555996,-363.2033666474329,
28,0.4391191005706787,0.015387296676635742,64.98867351523884,63.76402202411881,1682,1687.63668698556,-3003.5188993831785,
29,0.45494794845581055,0.015828847885131836,63.17579189950445,63.74355593520561,1635,1640.2636686985559,-2993.897040394384,
30,0.4704170227050781,0.015469074249267578,64.64510958355167,63.77320239707421,1612,1614.8263668698555,-1779.347151843031,
31,0.48682379722595215,0.016406774520874023,60.950432318535206,63.6780703339607,1536,1543.8826366869857,-4069.5806376261885,
32,0.5045599937438965,0.017736196517944336,56.38187415144305,63.421595839488006,1522,1524.1882636686985,-1406.3231586704014,
33,0.5227909088134766,0.018230915069580078,54.8518818821437,63.12275030737742,1551,1548.3188263668699,1050.6137815157435,
34,0.5408151149749756,0.018024206161499023,55.480945515152314,62.86806536753921,1494,1499.431882636687,-2336.0030971953556,
35,0.561180830001831,0.02036571502685547,49.102130648560056,62.36848824626779,1499,1499.0431882636688,-250.77745941721085,
36,0.578481912612915,0.017301082611083984,57.79985116996941,62.23185066823172,1494,1494.504318826367,-261.1891261020941,
37,0.5946879386901855,0.016206026077270508,61.70544186662351,62.21750533816675,1466,1468.8504318826367,-1450.8048991235569,

39,0.6252238750457764,0.011262893676757812,88.78712955122778,62.37765631893788,1443,1445.5850431882636,-2004.1808619726314,

41,0.6559779644012451,0.012835979461669922,77.90601433931424,62.50209949875898,1396,1400.9585043188265,-3329.4262855659626,
42,0.6755080223083496,0.019530057907104492,51.203125190746505,62.175427401257764,1438,1434.2958504318826,1203.3360473420573,
43,0.6908469200134277,0.015338897705078125,65.19373290226312,62.24244294114277,1424,1425.0295850431885,-423.3585829426042,
44,0.708827018737793,0.017980098724365234,55.61704723260933,62.07438322307567,1429,1428.6029585043188,136.53057421643544,
45,0.7274959087371826,0.01866888999938965,53.56504859328506,61.856017964572274,1410,1411.8602958504318,-793.4863273511495,
46,0.7485077381134033,0.021011829376220703,47.59223873822762,61.45561048699637,1438,1435.3860295850432,928.3294700155225,
47,0.7677359580993652,0.019228219985961914,52.00689407184218,61.21896402554192,1419,1420.6386029585044,-597.4381219572471,
48,0.7815890312194824,0.013853073120117188,72.18614897425306,61.413349065438524,1419,1419.1638602958506,-155.55420638624057,
49,0.7950179576873779,0.013428926467895508,74.46611628939192,61.63382792325314,1419,1419.0163860295852,-25.439072913892364,
50,0.8091108798980713,0.01409292221069336,70.95760446624936,61.79622749146422,1415,1415.4016386029584,-233.38834362096642,
51,0.8247890472412109,0.01567816734313965,63.78296506942016,61.83399278953442,1419,1418.640163860296,162.56763466658492,
52,0.8405849933624268,0.01579594612121582,63.30738230721628,61.861680152050575,1405,1406.3640163860296,-683.1969218051831,
53,0.8577771186828613,0.01719212532043457,58.16616511115117,61.787612242889914,1424,1422.2364016386032,762.5925109975801,
54,0.8741931915283203,0.016416072845458984,60.91590902489325,61.77124292811496,1410,1411.2236401638602,-527.5078873977066,
55,0.8905677795410156,0.016374588012695312,61.07023878858474,61.75835378677872,1447,1443.422364016386,1716.9945901855315,
56,0.9060609340667725,0.015493154525756836,64.54463475062708,61.805997692284414,1429,1430.4422364016386,-582.3183773007997,
57,0.9204199314117432,0.014358997344970703,69.64274565802145,61.92825476146872,1419,1420.144223640164,-703.6955329074736,
58,0.9357948303222656,0.015374898910522461,65.04107804673811,61.97939774899822,1475,1469.5144223640164,2819.6123002521986,
59,0.9518461227416992,0.016051292419433594,62.30027924662824,61.98480887862031,1429,1433.0514422364017,-1762.5272296779633,
60,0.967811107635498,0.015964984893798828,62.63707774558705,61.99556868755995,1527,1517.60514422364,4590.324401578866,
61,0.9841101169586182,0.016299009323120117,61.35342217281278,61.984933341118214,1560,1555.760514422364,2565.8987225239243,

63,1.008890151977539,0.008587121963500977,116.45345253630231,62.44485574223602,1508,1512.7760514422364,-4248.530335256862,
64,1.02860689163208,0.019716739654541016,50.718324506034,62.22007699992351,1565,1559.7776051442236,1720.6030141249666,
65,1.0443689823150635,0.0157620906829834,63.44336040900909,62.2385393483382,1536,1538.3777605144223,-1049.8499485782534,
66,1.0588488578796387,0.014479875564575195,69.06136696688786,62.331842272716834,1546,1545.2377760514423,321.4008505027955,
67,1.0742199420928955,0.015371084213256836,65.05721952505777,62.37083987610987,1597,1591.8237776051442,2759.820241936758,
68,1.0900540351867676,0.01583409309387207,63.15486425850361,62.382228591400995,1527,1533.4823777605143,-3040.1068448611404,
69,1.104193925857544,0.014139890670776367,70.72190466555381,62.48902333565449,1532,1532.1482377760512,-388.9283131986424,
70,1.1193280220031738,0.015134096145629883,66.07596452258298,62.53752128417769,1579,1574.3148237776052,2468.685225289545,
71,1.1356918811798096,0.016363859176635742,61.110279012165805,62.51695655888805,1560,1561.4314823777604,-461.705606269196,
72,1.1515288352966309,0.01583695411682129,63.143455024463684,62.525572780340305,1602,1597.9431482377759,2028.7548973631995,
73,1.1665451526641846,0.015016317367553711,66.59422383817855,62.57794636862602,1532,1538.5943148237775,-3354.1850574796,
74,1.1810450553894043,0.014499902725219727,68.96597990693391,62.65637340617911,1541,1540.7594314823777,-201.03105297208614,
75,1.1962568759918213,0.015211820602416992,65.73835086124477,62.69556439357325,1555,1553.5759431482377,738.1796013395748,
76,1.2108509540557861,0.014594078063964844,68.52094360582892,62.765776205102235,1593,1589.0575943148237,2261.9305568985615,
77,1.228177785873413,0.017326831817626953,57.71395547238352,62.69450635377011,1663,1655.6057594314825,3682.875110170359,
78,1.247009038925171,0.018831253051757812,53.1032107768662,62.54966689514151,1682,1679.3605759431482,1503.5988363833244,
79,1.263822078704834,0.016813039779663086,59.47764432280662,62.50879877091503,1790,1778.9360575943147,5480.623456466545,
80,1.2786638736724854,0.014841794967651367,67.3772951438531,62.56530871575328,1855,1847.3936057594315,4699.2983304377085,
81,1.2938108444213867,0.015146970748901367,66.01980135681794,62.6057513347127,1827,1829.039360575943,-620.6394259176482,
82,1.3085150718688965,0.014704227447509766,68.00765314395045,62.66645433658084,1776,1781.3039360575945,-2983.800716582531,
83,1.3248119354248047,0.016296863555908203,61.36150042426193,62.65040175184247,1715,1721.6303936057593,-3593.872362086199,
84,1.3408188819885254,0.016006946563720703,62.47287676129763,62.64828242530587,1691,1694.0630393605759,-1909.377968163561,
85,1.35599684715271,0.01517796516418457,65.88498452741867,62.684511530009075,1621,1628.3063039360577,-4090.0811432325054,
86,1.372431993484497,0.01643514633178711,60.845214262918155,62.662485579087054,1630,1629.8306303936058,-325.53494139871543,
87,1.3886699676513672,0.016237974166870117,61.58403688313977,62.64987507949175,1569,1575.0830630393607,-3066.972080625281,
88,1.4058611392974854,0.017191171646118164,58.169391859094375,62.59508676936185,1499,1506.6083063039362,-3891.5186693616924,
89,1.4231820106506348,0.017320871353149414,57.73381601949098,62.53592255519865,1504,1504.2608306303937,-511.12772271804795,
90,1.440824031829834,0.01764202117919922,56.68284772149846,62.46425518437584,1513,1512.1260830630395,350.12964306592045,
91,1.456096887588501,0.015272855758666992,65.47563964470254,62.495841297146555,1480,1483.212608306304,-1668.8024643368014,
92,1.4701449871063232,0.014048099517822266,71.18400597399952,62.57886181762453,1452,1455.1212608306303,-1966.5694283071298,
93,1.4831857681274414,0.013040781021118164,76.68252372159351,62.70286703021348,1424,1427.1121260830632,-2129.686968562169,
94,1.4983851909637451,0.015199422836303711,65.79197189063702,62.734202504724585,1419,1419.8112126083065,-645.2760415526676,
95,1.513627052307129,0.015241861343383789,65.60878474557713,62.76314885836463,1391,1393.8811212608307,-1595.6452076399898,
96,1.5277860164642334,0.014158964157104492,70.62663545893882,62.83602478714494,1410,1408.3881121260831,762.5574391377053,
97,1.5421130657196045,0.014327049255371094,69.7980430007322,62.900705633238616,1372,1375.6388112126083,-1980.9976581486007,
98,1.5565948486328125,0.014481782913208008,69.05227111835498,62.95793673355357,1391,1389.4638811212608,661.0874621913749,
99,1.5722191333770752,0.015624284744262695,64.00292982161659,62.96832158972092,1429,1425.0463881121261,2115.75497425132,
100,1.5873188972473145,0.015099763870239258,66.22620119053258,62.99931297574627,1369,1374.6046388112127,-2794.9333964190982,
101,1.6031429767608643,0.015824079513549805,63.19482906691175,63.00124284863823,1400,1397.4604638811213,1020.4396229865916,
102,1.6185989379882812,0.015455961227416992,64.69995526555293,63.01746381149454,1391,1391.6460463881122,-236.5293342249878,
103,1.6346919536590576,0.016093015670776367,62.13875761122387,63.00881323202645,1386,1386.5646046388113,-307.8319628803242,
104,1.650528907775879,0.01583695411682129,63.143455024463684,63.01010513056818,1410,1407.656460463881,1167.8481884174603,
105,1.665343999862671,0.014815092086791992,67.49873670319766,63.05003651417281,1377,1380.065646046388,-1559.3257871720887,
106,1.6808691024780273,0.015525102615356445,64.41181258350353,63.062614360469304,1405,1402.5065646046387,1144.9816376209242,
107,1.695404052734375,0.014534950256347656,68.79968506003543,63.11179911799118,1378,1380.450656460464,-1251.1974168669708,
108,1.7108888626098633,0.015484809875488281,64.57941738005789,63.125082148966804,1359,1361.1450656460465,-1247.1891679622845,
109,1.7248389720916748,0.013950109481811523,71.68402522602588,63.19430495463473,1378,1376.3145065646047,853.9470101273411,
110,1.7402589321136475,0.015419960021972656,64.85101119426062,63.20898457702412,1377,1376.9314506564604,121.40320439918187,
111,1.7550110816955566,0.01475214958190918,67.78673131313131,63.24746388083222,1369,1369.793145065646,-423.3538423640785,
112,1.7695038318634033,0.01449275016784668,69.00001645088588,63.29457895666531,1400,1396.9793145065646,1645.9261405575478,
113,1.7844159603118896,0.014912128448486328,67.05950820196335,63.32604197299898,1363,1366.3979314506564,-1681.1026430227978,
114,1.7985420227050781,0.014126062393188477,70.79113571537073,63.38467411984042,1372,1371.4397931450656,153.11693961806174,
115,1.8122611045837402,0.01371908187866211,72.89117514163567,63.45663972433732,1391,1389.0439793145067,1170.182529534233,
116,1.8276889324188232,0.015427827835083008,64.81793877204099,63.46813067718357,1377,1378.2043979314506,-515.3211372079171,
117,1.843501091003418,0.015812158584594727,63.242472218452676,63.46619514953304,1438,1432.020439793145,3011.581465389975,
118,1.8587729930877686,0.015271902084350586,65.47972835844196,63.48273858013183,1433,1432.9020439793144,353.1126289060312,
119,1.8756258487701416,0.016852855682373047,59.33712474888946,63.44548944984362,1649,1627.3902043979315,10421.64267613796,
120,1.8913679122924805,0.015742063522338867,63.52407348508943,63.44614351342725,1654,1651.3390204397933,2411.3579827255044,
121,1.9072890281677246,0.01592111587524414,62.80966785468268,63.440830525953935,1743,1733.8339020439794,4904.464300215818,
122,1.923119068145752,0.015830039978027344,63.17103439966263,63.438609715222114,1780,1775.383390204398,2852.698161304743,
123,1.9386069774627686,0.015487909317016602,64.56649374239929,63.44762060073739,1771,1771.4383390204398,56.023505806241275,
124,1.9527957439422607,0.014188766479492188,70.4782900927544,63.49870455456419,1771,1771.043833902044,-19.42129097900933,
125,1.968775987625122,0.015980243682861328,62.57726852266285,63.491225403853036,1701,1708.0043833902046,-3552.2950890783477,
126,1.9846038818359375,0.01582789421081543,63.1795984153524,63.488740072118894,1649,1654.9004383390206,-3374.806839252102,
127,2.001145124435425,0.016541242599487305,60.45495034520532,63.46366310430884,1518,1531.690043833902,-7041.291137563299,
128,2.016772985458374,0.01562786102294922,63.98828339537438,63.46772835759105,1475,1480.66900438339,-3642.4029720936765,
129,2.031740188598633,0.014967203140258789,66.81274989247655,63.492370099237995,1443,1446.766900438339,-2402.8238097478625,
130,2.0460970401763916,0.014356851577758789,69.65315442483019,63.535598482070455,1429,1430.776690043834,-1242.6741154793751,
131,2.0610060691833496,0.014909029006958008,67.07344921881247,63.56119079838871,1382,1386.8776690043833,-2774.2802941485934,
132,2.0765087604522705,0.015502691268920898,64.5049290251142,63.568236510232666,1386,1386.0877669004385,-323.2853506514304,
133,2.092097043991089,0.01558828353881836,64.15074485332354,63.572576798959666,1415,1412.108776690044,1470.0119087897851,
134,2.1071269512176514,0.0150299072265625,66.53401015228427,63.59370038077917,1368,1372.4108776690043,-2230.133183962204,
135,2.12267804145813,0.015551090240478516,64.30417318247325,63.5989054219756,1369,1369.3410877669005,-400.6735897450429,
136,2.1386539936065674,0.0159759521484375,62.594078319006684,63.59139926634571,1355,1356.43410877669,-767.1777673720142,
137,2.152998924255371,0.014344930648803711,69.71103761197999,63.63217299208933,1355,1355.1434108776689,-157.69607754312835,

139,2.1763129234313965,0.007297992706298828,137.02397909180007,63.86949160823732,1368,1366.714341087767,1411.175801508736,
140,2.191498041152954,0.015185117721557617,65.85395110769183,63.883242134382904,1350,1351.6714341087768,-750.4537944899074,
141,2.207892894744873,0.016394853591918945,60.99475023631208,63.8617934482247,1345,1345.6671434108775,-404.65256976710975,
142,2.2242701053619385,0.01637721061706543,61.06045915767714,63.841167337405466,1341,1341.466714341088,-271.29737187125824,
143,2.241212844848633,0.016942739486694336,59.02233229669448,63.804738728265654,1313,1315.8466714341089,-1388.068954507285,
144,2.2573699951171875,0.016157150268554688,61.89210246724117,63.79104901344473,1331,1329.484667143411,620.8689096483952,
145,2.2729909420013428,0.015620946884155273,64.01660587005296,63.79259913474584,1359,1356.0484667143412,1592.5587497538347,
146,2.288651943206787,0.015661001205444336,63.85287804283953,63.79301161688631,1400,1395.6048466714342,2432.465709670216,
147,2.3029160499572754,0.014264106750488281,70.10603730694658,63.8321140723854,1355,1359.0604846671433,-2062.5357944612174,
148,2.3191511631011963,0.0162351131439209,61.5948894926206,63.81645248259396,1382,1379.7060484667143,938.2415192265566,
149,2.3348629474639893,0.01571178436279297,63.64649468892261,63.8153088008169,1378,1378.1706048466715,5.871108135282597,
150,2.3496718406677246,0.014808893203735352,67.5269911290712,63.83870181521745,1341,1344.7170604846672,-2032.5283632186224,
151,2.364471912384033,0.014800071716308594,67.56724015722662,63.862040064477135,1350,1349.4717060484668,85.8796144827044,
152,2.3782520294189453,0.01378011703491211,72.56832416346586,63.912486195643716,1359,1358.0471706048468,568.6643440499957,
153,2.3938539028167725,0.015601873397827148,64.0948669753511,63.913674857087024,1345,1346.3047170604846,-620.5014636961224,
154,2.4091451168060303,0.015291213989257812,65.39703130846951,63.923089948258664,1336,1337.0304717060485,-607.9074487954468,
155,2.425010919570923,0.015865802764892578,63.02864184173354,63.91723795925233,1341,1340.603047170605,141.8663765877361,
156,2.441413164138794,0.016402244567871094,60.96726553869411,63.89741904051248,1327,1328.3603047170604,-657.5792394196056,
157,2.4573748111724854,0.015961647033691406,62.65017625619884,63.889317692277764,1266,1272.236030471706,-3230.3340302923853,
158,2.4737000465393066,0.01632523536682129,61.25485957968834,63.8719315306806,1270,1270.2236030471706,-433.9772664030462,
159,2.4901821613311768,0.016482114791870117,60.67182595362428,63.85075054710189,1233,1236.722360304717,-1872.7211386505385,
160,2.5043129920959473,0.014130830764770508,70.76724763367021,63.88977755775263,1313,1305.3722360304716,4185.074366089589,

162,2.5283150672912598,0.008188247680664062,122.12625203820173,64.07429283469826,1626,1593.9372236030472,32135.731798128974,
163,2.54276704788208,0.014451980590820312,69.1946680744358,64.10339481776982,1743,1728.0937223603048,11568.196141196106,
164,2.5570411682128906,0.014274120330810547,70.05685652246534,64.13662870927462,1701,1703.7093722360305,-380.6422121252501,
165,2.571702003479004,0.014660835266113281,68.20893774799974,64.15984424975665,1682,1684.170937223603,-1237.49052892293,
166,2.5861728191375732,0.014470815658569336,69.10460499217399,64.18751243985196,1677,1677.7170937223602,-525.1403281435148,
