Index,Time,Difference,Hz,AveHz,Position-X,Position-Y,Position-Z,Velocity-X,Velocity-Y,Velocity-Z
0,0.0,0.0,0,0,3787,1081,855,0,0,0,
1,0.03407764434814453,0.03407764434814453,29.344751350292448,29.344751350292448,3848,1052,856,0,0,0,
2,0.06732606887817383,0.0332484245300293,30.076613076713468,29.7061752353162,3879,1037,831,0,0,0,
3,0.09955978393554688,0.03223371505737305,31.023417506176127,30.13264876048891,3893,979,814,0,0,0,
4,0.13272500038146973,0.03316521644592285,30.15207217569462,30.137502267873085,3917,978,809,0,0,0,
5,0.16771435737609863,0.034989356994628906,28.580119381831068,29.812593735117883,3992,1008,797,0,0,0,
6,0.20178890228271484,0.03407454490661621,29.347420566894534,29.734043508466808,4037,1047,798,0,0,0,
7,0.23569607734680176,0.033907175064086914,29.49228291976346,29.699263894410272,4074,1079,800,0,0,0,
8,0.2704763412475586,0.034780263900756836,28.751938250193653,29.577448301394497,4076,1101,814,0,0,0,
9,0.30441761016845703,0.03394126892089844,29.46265805001405,29.564649676540153,3996,1125,789,0,0,0,
10,0.3375968933105469,0.033179283142089844,30.139288896553705,29.621125662436864,4014,1143,806,0,0,0,
11,0.3743553161621094,0.0367584228515625,27.204649232046492,29.38384877974219,4022,1146,813,511.347098011,276.244983983,-126.36738629,
12,0.4109654426574707,0.03661012649536133,27.314846894252184,29.199535421769504,4047,1154,830,488.884606419,340.473208041,-2.91002741916,
13,0.4443848133087158,0.03341937065124512,29.922765764673148,29.253925000737706,4076,1161,856,530.703935073,527.80391357,121.800903132,
14,0.48001742362976074,0.03563261032104492,28.06418028289641,29.165607977593442,4093,1166,865,506.777540246,541.330554354,161.247399169,
15,0.5142359733581543,0.034218549728393555,29.22391533064387,29.169487894914,4097,1169,882,303.011400032,464.617480049,245.294942883,
16,0.5483624935150146,0.03412652015686035,29.302723963755003,29.17777964251289,4082,1179,886,129.842553323,380.871489748,253.914326499,
17,0.5828518867492676,0.03448939323425293,28.99442136334414,29.166929689142613,4094,1184,906,57.6110191975,302.457850787,305.338401747,
18,0.6198949813842773,0.037043094635009766,26.99558473321748,29.037176522714372,4088,1181,903,34.3427585755,228.951723837,254.708792768,
19,0.6531774997711182,0.03328251838684082,30.045803276574713,29.08857088105124,4020,1194,896,68.8152528874,197.843852051,306.80133579,
20,0.6881232261657715,0.03494572639465332,28.615802364691998,29.06456175217362,4018,1184,893,11.4114108558,116.966961272,248.198186114,
21,0.7221770286560059,0.034053802490234375,29.365296292147416,29.07874269980819,4035,1184,906,37.3754700556,109.251374009,267.378362705,
22,0.7581455707550049,0.03596854209899902,27.802072078640887,29.018173881951373,4053,1173,913,17.282095127,54.726634569,239.068982591,
23,0.7937307357788086,0.03558516502380371,28.10159793641754,28.97708122318383,4078,1159,914,5.72498452497,-5.72498452496,166.024551224,
24,0.8275136947631836,0.033782958984375,29.600722673893404,29.002541168660994,4082,1154,931,-31.6550159348,-34.5327446561,189.930095609,
25,0.8625185489654541,0.03500485420227051,28.567466506834855,28.984883896104254,4100,1085,882,8.61369534428,-241.18346964,0.0,
26,0.8957643508911133,0.03324580192565918,30.078985678736114,29.025490882881193,4075,1115,900,-20.1495756323,-184.224691495,40.2991512646,
27,0.9285140037536621,0.03274965286254883,30.534674800891075,29.078721366450377,4079,1114,893,-43.3949781075,-202.509897835,-37.6089810265,
28,0.9617528915405273,0.033238887786865234,30.085242515098916,29.11350747815257,4060,1119,886,-81.9053740404,-181.361899661,-49.7282628102,
29,0.9961600303649902,0.03440713882446289,29.063736020067353,29.111788383413135,4013,1115,857,-20.4092027308,-230.332430819,-113.708415214,
30,1.0297150611877441,0.033555030822753906,29.801790535739663,29.13427328662741,4044,1095,865,76.1142314726,-260.544869271,-81.9691723551,
31,1.063488483428955,0.03377342224121094,29.609081154345738,29.14935185762255,4060,1092,888,73.2468824307,-269.548527345,-52.7377553501,
32,1.0977287292480469,0.0342402458190918,29.205397802442658,29.151100037183376,4064,1067,878,32.3926547147,-312.147399978,-103.067537729,
33,1.131894588470459,0.03416585922241211,29.268984382632482,29.15465833668597,4061,1060,894,-50.2714878148,-292.757487863,-59.142926841,
34,1.1675734519958496,0.035678863525390625,28.027798567304608,29.120223607243222,3960,1086,866,-358.760474902,-199.964854864,-191.142875973,
35,1.202216386795044,0.034642934799194336,28.86591467485186,29.11289546909733,3991,1109,895,-320.87339942,70.6510237255,38.269304518,
36,1.2369115352630615,0.03469514846801758,28.82247357787826,29.104749186726323,3962,1128,911,-331.235329431,38.1067193151,32.2441471128,
37,1.270383596420288,0.03347206115722656,29.875662430907745,29.12506120533934,3979,1131,899,-292.509196913,49.7265634753,17.5505518148,
38,1.3079800605773926,0.03759646415710449,26.59824593667362,29.052430648847462,3992,1124,912,-196.402842068,14.4413854462,75.0952043201,
39,1.3422019481658936,0.03422188758850098,29.221064951893936,29.056730288086033,4012,1117,902,-2.88982330914,5.77964661828,130.042048911,
40,1.3784105777740479,0.0362086296081543,27.617725686442352,29.018929950896595,4006,1125,882,-108.977598485,86.0349461722,48.7531361643,
41,1.413158655166626,0.034748077392578125,28.77857064441761,29.013019769649063,4016,1132,875,-125.832866388,114.393514898,-37.1778923418,
42,1.4466347694396973,0.03347611427307129,29.87204523926529,29.032898204338895,4024,1123,855,-114.644045652,160.501663913,-65.9203262499,
43,1.4802865982055664,0.03365182876586914,29.716067051138538,29.048428900272068,4021,1121,844,-114.813195717,175.090123469,-143.516494646,
44,1.5149331092834473,0.03464651107788086,28.862935080306638,29.044186657727543,4037,1120,841,221.672259241,97.881257327,-71.9715127405,
45,1.5480809211730957,0.03314781188964844,30.167903791932794,29.068247909095195,4015,1125,834,69.3913298834,46.2608865889,-176.36963012,
46,1.5823161602020264,0.034235239028930664,29.20966899500672,29.071307717748915,4003,1124,851,118.701363675,-11.5806208464,-173.709312696,
47,1.6181776523590088,0.03586149215698242,27.88506389032936,29.04501859328149,3936,1120,837,-123.636385573,-31.6279125884,-178.266416407,
48,1.6518731117248535,0.03369545936584473,29.677589171366105,29.057921979176317,3967,1097,860,-72.6970199502,-78.5127815462,-151.209801496,
49,1.6841704845428467,0.032297372817993164,30.962270697228067,29.094441714610987,3977,1109,872,-102.348597245,-23.3939650845,-87.7273690669,
50,1.7172510623931885,0.0330805778503418,30.229218018018017,29.116301684110883,3996,1108,869,-29.5124120462,-50.1711004785,-38.36613566,
51,1.7501587867736816,0.032907724380493164,30.38800217351929,29.140213096901686,4009,1116,869,-20.7715052413,-47.4777262659,-17.8041473497,
52,1.7844505310058594,0.034291744232177734,29.161537926719042,29.140622895658886,4012,1115,863,-35.5223212332,-23.6815474888,23.6815474888,
53,1.8181898593902588,0.033739328384399414,29.6390013638323,29.149871079895846,3950,1110,838,-210.119309743,-32.5536958757,-17.7565613867,
54,1.8531544208526611,0.034964561462402344,28.60038731145842,29.1395036443611,3851,1136,828,-549.935777663,47.3063034549,-38.4363715571,
55,1.8876423835754395,0.03448796272277832,28.99562401056321,29.13687490732374,3904,1135,871,-326.892219201,29.4497494776,108.964073067,
56,1.92140531539917,0.03376293182373047,29.61828093664379,29.14533417347503,3846,1151,879,-463.005075785,79.6250767274,82.5741536432,
57,1.9543108940124512,0.03290557861328125,30.38998376999768,29.166290877584824,3905,1133,892,-92.225332572,38.6751394657,163.625590047,
58,1.988703966140747,0.0343930721282959,29.075623028664516,29.164722848395602,3928,1132,908,-115.785117333,103.909720684,142.504759795,
59,2.021737813949585,0.03303384780883789,30.27198059962181,29.182814701744135,3882,1137,885,-281.425338663,82.9464156061,38.5108358171,
60,2.0567538738250732,0.03501605987548828,28.558324481847645,29.172182808832765,3846,1130,855,-441.822556247,64.8006415829,-41.2367719164,
61,2.0892693996429443,0.032515525817871094,30.75453878867869,29.196809186227917,3905,1106,833,-306.684592145,-29.4889030909,-106.160051127,
62,2.1218817234039307,0.03261232376098633,30.663255011477784,29.21934776861142,3965,1082,814,-139.287656443,-97.7977162262,-145.21479076,
63,2.155921459197998,0.03403973579406738,29.377431307039846,29.221843741671357,4006,1076,808,165.812142044,-100.671657669,-88.8279332377,
64,2.1898932456970215,0.03397178649902344,29.43619111784852,29.22516890983397,4034,1080,807,543.447878588,-166.300990169,-62.3628713134,
65,2.2237420082092285,0.03384876251220703,29.54317752796326,29.230009488530673,3985,1092,812,240.999971625,-127.938256542,-175.543189209,
66,2.257495641708374,0.03375363349914551,29.626440069787318,29.23593684108027,4003,1102,832,467.136325297,-145.794139742,-139.843358528,
67,2.290771245956421,0.033275604248046875,30.052046314341396,29.24779159781482,3955,1122,842,148.605919572,-32.6933023057,-148.605919572,
68,2.326125383377075,0.0353541374206543,28.285232591074006,29.23316192924967,3958,1120,851,88.9095904039,-35.5638361616,-168.928221767,
69,2.358252763748169,0.03212738037109375,31.126098313939682,29.258950126420086,3879,1146,855,-8.91490854061,26.7447256218,-89.149085406,
70,2.3933067321777344,0.03505396842956543,28.527440538132453,29.24823594855521,3882,1168,873,106.966852625,112.909455549,53.4834263126,
71,2.4274327754974365,0.03412604331970215,29.30313340552625,29.249007723993707,3876,1174,885,-85.7573648439,201.086234806,153.771826617,
72,2.45925235748291,0.03181958198547363,31.427188467042807,29.27719059856603,3861,1177,911,-308.266308607,281.589416516,287.517614759,
73,2.492229461669922,0.03297710418701172,30.324069521964198,29.291042868535165,3827,1166,925,-532.25019531,267.611830044,347.895379057,
74,2.5277552604675293,0.03552579879760742,28.14855777619693,29.274986054746886,3880,1222,936,-455.807380728,420.289922489,381.812676064,
75,2.560943841934204,0.033188581466674805,30.13084488121664,29.28607756714991,3940,1286,960,-133.451231575,575.323087235,438.906272736,
76,2.5948245525360107,0.03388071060180664,29.515319550194924,29.289070787357318,3912,1258,1004,-269.76638254,462.456655782,509.888107657,
77,2.6281871795654297,0.033362627029418945,29.97365882243645,29.2977610570081,3911,1220,1047,-130.402851843,290.442715469,607.558741543,
78,2.6607511043548584,0.03256392478942871,30.70882906364628,29.315030583784104,3952,1225,1061,-17.9304806052,313.783410591,627.566821183,
79,2.69728946685791,0.03653836250305176,27.36849523337227,29.288662181307373,3979,1226,1055,294.953316508,235.962653206,589.906633015,
80,2.7298266887664795,0.032537221908569336,30.734031405939724,29.305889758206376,3901,1234,1026,56.460247388,196.125069874,454.653571072,
81,2.7646782398223877,0.0348515510559082,28.693127556814296,29.29816527409125,3912,1229,1017,106.747173226,163.085959095,391.406301829,
82,2.797166347503662,0.032488107681274414,30.780493890580853,29.315382001925304,3855,1237,990,-17.7559976124,177.559976124,233.787301896,
83,2.830387592315674,0.03322124481201172,30.10122003731879,29.3246056566033,3799,1243,968,-82.8014986555,227.704121303,127.159444364,
84,2.8657524585723877,0.03536486625671387,28.276651542833257,29.311673361294332,3847,1234,950,-97.633945444,35.5032528887,41.4204617035,
85,2.901414632797241,0.035662174224853516,28.040915107836714,29.296054083125608,3882,1220,942,-170.352351968,-193.849228102,-52.8679713005,
86,2.9369349479675293,0.035520315170288086,28.152903351389085,29.282228419637033,3904,1194,919,-23.3842645732,-187.074116585,-248.45781109,
87,2.9702155590057373,0.03328061103820801,30.04752523479644,29.29080340186581,3944,1176,912,96.4832218134,-128.644295751,-394.704089236,
88,3.0069141387939453,0.03669857978820801,27.249010881923013,29.265883872326416,3915,1160,875,-106.886051712,-187.772793549,-537.319070771,
89,3.0393221378326416,0.03240799903869629,30.856579537846965,29.28284530690334,3855,1141,830,-362.538466418,-248.514271335,-657.83189471,
90,3.076138496398926,0.03681635856628418,27.161838892882354,29.257460320905018,3894,1124,817,-20.2129983608,-317.632831384,-603.50237963,
91,3.1099648475646973,0.033826351165771484,29.562751096012068,29.260780896368928,3862,1109,781,-144.807238042,-347.5373713,-683.490163557,
92,3.1464662551879883,0.036501407623291016,27.396203738781697,29.23915037967041,3902,1082,767,134.554859495,-443.744749398,-638.419865262,
93,3.1822381019592285,0.035771846771240234,27.954944747330675,29.224714499754782,3933,1084,762,380.843558066,-451.89646069,-585.475917624,
94,3.2169036865234375,0.034665584564208984,28.84705429235615,29.220644806306712,3966,1076,760,338.885330672,-449.948590304,-541.07741872,
95,3.251183032989502,0.03427934646606445,29.17208474175465,29.220132805825564,3981,1071,758,283.044437249,-425.996173234,-526.062388423,
96,3.285691738128662,0.034508705139160156,28.978195384827966,29.217591804481327,4017,1061,752,324.008028483,-381.354582196,-478.84372351,
97,3.3197312355041504,0.03403949737548828,29.37763707169473,29.219232859153163,4024,1061,756,228.888159757,-329.026729651,-446.331911526,
98,3.353160858154297,0.033429622650146484,29.913589227894505,29.22615530408607,4039,1069,766,358.126136846,-262.818374621,-314.804426743,
99,3.388781785964966,0.035620927810668945,28.07338442488538,29.2140380386899,4038,1067,779,523.665610545,-211.755492789,-145.939596381,
100,3.4241559505462646,0.03537416458129883,28.269218844779942,29.20427732973048,4039,1075,788,416.64576955,-140.797535917,-83.32915391,
101,3.4574921131134033,0.03333616256713867,29.99745390568008,29.21192491428462,4031,1085,807,486.292779743,-69.0593296676,74.8142738065,
102,3.490694522857666,0.033202409744262695,30.118295861727262,29.22054603520489,4025,1092,819,357.321032444,29.0504904426,151.062550301,
103,3.525717258453369,0.035022735595703125,28.552880949787603,29.213913779683836,4012,1101,829,229.999400273,49.4935418309,195.06278251,
104,3.5618326663970947,0.036115407943725586,27.689012998501443,29.19845196018129,4010,1106,846,127.562491317,86.9744258977,249.326687573,
105,3.596843719482422,0.03501105308532715,28.562408493193598,29.192260823361345,4019,1111,845,109.934399499,115.720420525,251.691914642,
106,3.631950616836548,0.03510689735412598,28.484431133657953,29.185418851406816,4030,1126,864,37.5441636284,187.720818142,323.457409722,
107,3.66725754737854,0.03530693054199219,28.32305115877046,29.177116310384758,4025,1145,883,2.87747996579,241.708317126,365.439955654,
108,3.700746774673462,0.033489227294921875,29.860348559061396,29.18329909495887,4021,1151,896,-51.7857575481,235.912895497,374.008248959,
109,3.7364423274993896,0.035695552825927734,28.014694291935506,29.172135000662017,4042,1153,915,11.5054759518,247.367732963,391.18618236,
110,3.7697362899780273,0.033293962478637695,30.03547567045007,29.17975994565953,4057,1168,934,52.0862964299,269.112531555,422.477737709,
111,3.8037302494049072,0.03399395942687988,29.41699104368745,29.181880081366423,4046,1161,923,43.3227840256,219.50210573,335.029529798,
112,3.839488983154297,0.03575873374938965,27.965196055552962,29.170548604618585,4041,1167,937,45.8722881848,215.026350866,338.308125363,
113,3.8766746520996094,0.0371856689453125,26.892080426754205,29.14869318187409,4054,1161,934,119.672646197,170.960923138,299.181615492,
114,3.909297466278076,0.0326228141784668,30.653394723379375,29.161249811090983,4054,1164,942,126.631532216,166.923383375,276.28697938,
115,3.9455645084381104,0.03626704216003418,27.573243927291852,29.14665309718225,4041,1167,941,63.0877214573,160.586927346,275.29187545,
116,3.9809646606445312,0.0354001522064209,28.248466113053023,29.138666099391905,3958,1172,915,-206.295423572,131.799853949,146.12592503,
117,4.016916751861572,0.035952091217041016,27.814793692056714,29.126817215163427,3945,1169,906,-228.794205828,68.6382617483,65.7783341754,
118,4.048795223236084,0.03187847137451172,31.369132737009004,29.14447224270484,3952,1176,913,-198.248261944,71.8290804147,48.843774682,
119,4.082146644592285,0.03335142135620117,29.983729608395407,29.151329033620602,3895,1190,897,-425.218872695,107.027879522,-52.0676170647,
120,4.116532564163208,0.03438591957092285,29.08167100017334,29.1507471712162,3834,1196,861,-643.028822971,80.7390450367,-210.49822456,
121,4.149199962615967,0.03266739845275879,30.611559149594576,29.162248406970612,3856,1189,842,-549.975852395,81.0490729846,-234.463389705,
122,4.183725357055664,0.034525394439697266,28.964187556108005,29.160613947627443,3887,1186,845,-447.367017769,55.1946320625,-267.258218408,
123,4.217225790023804,0.03350043296813965,29.85036046999879,29.16609309631148,3803,1204,826,-737.040555876,126.265911963,-317.132988186,
124,4.248131275177002,0.030905485153198242,32.35671580766353,29.189305124482868,3854,1196,832,-590.259870023,94.4415792036,-324.642928513,
125,4.282063245773315,0.03393197059631348,29.47073165590461,29.191535207562247,3923,1203,854,-350.669963681,106.984056716,-258.544803731,
126,4.315425634384155,0.033362388610839844,29.97387302404025,29.197583430951923,3948,1202,866,-29.8988545306,89.6965635918,-146.5043872,
127,4.348714590072632,0.03328895568847656,30.039993124391223,29.20403198911218,3983,1192,873,114.527569573,69.319318426,-99.4581525242,
128,4.382075786590576,0.033361196517944336,29.97494407798352,29.20990102263588,3989,1183,876,111.017575185,21.003325035,-111.017575185,
129,4.41711163520813,0.03503584861755371,28.542194336887807,29.204604876127757,3997,1174,886,304.509434889,-47.7661858649,-32.8392527821,
130,4.450909852981567,0.0337982177734375,29.587358916478554,29.207511339039105,3923,1182,874,266.166402373,-41.8688722834,38.8782385489,
131,4.484370470046997,0.03346061706542969,29.88588040814,29.212573063488907,3950,1159,868,280.454270038,-89.5066819272,77.5724576702,
132,4.516138315200806,0.031767845153808594,31.47837050824052,29.228511349110605,3952,1163,884,195.539910245,-69.1910451636,117.323946147,
133,4.548712491989136,0.03257417678833008,30.69916414152504,29.239042967483655,3983,1166,893,543.00820797,-114.635066127,202.119721855,
134,4.5833752155303955,0.034662723541259766,28.849435296383422,29.236096478846388,4015,1164,907,480.247308364,-95.4528811655,223.717690232,
135,4.616136074066162,0.0327608585357666,30.524230581694066,29.245238405869635,4014,1171,914,272.395694271,-95.7874968866,179.601556662,
136,4.64994740486145,0.033811330795288086,29.57588407432218,29.247642641681075,4031,1170,913,248.115391359,-95.658946066,140.499077034,
137,4.684942960739136,0.03499555587768555,28.575056887084248,29.24261856506909,4028,1174,905,133.837605407,-53.5350421629,95.1734082896,
138,4.7178120613098145,0.03286910057067871,30.423710495201757,29.250847258567315,4016,1170,886,80.4202644548,-38.7208680708,29.7852831314,
139,4.75203537940979,0.034223318099975586,29.219843531206678,29.250623975207862,4011,1158,869,41.8005598061,-47.7720683499,-50.7578226218,
140,4.786226987838745,0.03419160842895508,29.24694233317063,29.250597674478033,4029,1164,882,316.118650021,-53.6805254753,23.8580113224,
141,4.818701505661011,0.032474517822265625,30.793374838482322,29.260994862278395,4018,1156,876,203.391228323,-8.97314242602,23.9283798027,
142,4.852141380310059,0.03343987464904785,29.90441831780232,29.265429193022815,4011,1144,870,175.593636269,-56.5471032052,-41.6662865723,
143,4.884843349456787,0.032701969146728516,30.579198320234468,29.274224324082397,4029,1136,878,136.851464178,-89.250954899,-44.6254774495,
144,4.91699743270874,0.032154083251953125,31.100249139874244,29.286165382574012,3930,1137,843,-254.779195219,-80.9298620109,-191.833746989,
145,4.949047803878784,0.032050371170043945,31.200886713432368,29.298565248522593,3935,1129,839,-237.300139723,-126.159567954,-225.284942775,
146,4.981709241867065,0.03266143798828125,30.617145526746086,29.30721021873238,3941,1134,839,-271.278941581,-108.511576633,-223.051574189,
147,5.015463829040527,0.033754587173461914,29.625603028740542,29.309353035075425,3950,1134,842,-235.991150577,-121.02110286,-190.608237004,
