Index,Time,Difference,Hz,AveHz,Position-X,Position-Y,Position-Z,Velocity-X,Velocity-Y,Velocity-Z
0,0.0,0.0,0,0,2621,3336,508,0,0,0,
1,0.05392050743103027,0.05392050743103027,18.545819534044632,18.545819534044632,2250,3429,757,0,0,0,
2,0.10493230819702148,0.05101180076599121,19.603307175673844,19.059906661395353,2006,3525,1008,0,0,0,
3,0.15744280815124512,0.05251049995422363,19.0438103021635,19.054538185815982,1856,3593,1241,0,0,0,
4,0.2108314037322998,0.05338859558105469,18.730591975992283,18.972505657074425,1771,3644,1412,0,0,0,
5,0.2622835636138916,0.0514521598815918,19.435530059405206,19.06333714208838,1749,3664,1509,0,0,0,
6,0.3148653507232666,0.052581787109375,19.01799187463726,19.055764587045232,1754,3676,1566,0,0,0,
7,0.36787939071655273,0.05301403999328613,18.86292763438974,19.027975408911743,1787,3692,1601,0,0,0,
8,0.42189526557922363,0.0540158748626709,18.513076064071612,18.962052084222208,1828,3681,1608,0,0,0,
9,0.47464704513549805,0.052751779556274414,18.956706454485055,18.961457976486,1868,3672,1590,0,0,0,
10,0.5244159698486328,0.049768924713134766,20.09285926436914,19.068831948207823,1901,3657,1568,0,0,0,
11,0.5808990001678467,0.05648303031921387,17.70443254103931,18.936166178322956,1926,3645,1541,-614.825850515,409.883900343,1487.72674939,
12,0.6352691650390625,0.05437016487121582,18.392440088579008,18.889630821703935,1940,3639,1491,-124.449204592,214.957717023,910.741906335,
13,0.688298225402832,0.05302906036376953,18.85758474957288,18.88716187288097,1965,3628,1469,205.328977454,65.9313230356,429.495475775,
14,0.7429237365722656,0.054625511169433594,18.30646484750083,18.844464526862232,1984,3620,1416,400.306463473,-45.1049536307,7.51749227179,
15,0.7946689128875732,0.05174517631530762,19.32547285000115,18.87578557149642,1994,3619,1392,460.192979266,-84.5252410897,-219.765626833,
16,0.8471550941467285,0.05248618125915527,19.05263396973785,18.88674235750836,2006,3623,1401,473.426368089,-99.5698313838,-309.981550534,
17,0.8994848728179932,0.05232977867126465,19.109578243813985,18.899706391660324,2020,3615,1397,438.294953391,-144.844254983,-383.743220995,
18,0.9514224529266357,0.05193758010864258,19.25388125338548,18.91904058458034,2014,3612,1406,351.256752145,-130.304924183,-381.472386738,
19,1.004408597946167,0.05298614501953125,18.87285817134629,18.916604297147142,2022,3620,1414,290.69682234,-98.1573685824,-332.224939817,
20,1.057898759841919,0.05349016189575195,18.69502660973283,18.905400742684098,2015,3616,1415,213.690117354,-76.8534632589,-286.794631186,
21,1.1108942031860352,0.05299544334411621,18.869546830784735,18.903690324220054,1969,3635,1445,81.1328097974,-18.8680953017,-181.133714896,
22,1.1647307872772217,0.05383658409118652,18.5747297470849,18.888484996115846,1849,3689,1561,-171.872702719,94.4355509444,132.209771322,
23,1.2156336307525635,0.0509028434753418,19.64526796001911,18.920174152932383,1924,3670,1343,-77.7493784488,79.6457047525,-238.937114257,
24,1.2683861255645752,0.05275249481201172,18.956449426014643,18.921682850573035,1979,3657,1221,-9.51542889604,70.4141738307,-371.101726946,
25,1.32069730758667,0.05231118202209473,19.116371707632776,18.9293942346887,2013,3624,1112,36.1197231774,9.50519030985,-532.290657352,
26,1.3736629486083984,0.052965641021728516,18.880164210412598,18.927496025382016,2034,3604,1085,53.180593153,-36.0868310681,-600.18097987,
27,1.4254581928253174,0.051795244216918945,19.306791870929136,18.94127806476378,2049,3580,1051,55.135876473,-66.5432991915,-657.828043436,
28,1.4781689643859863,0.052710771560668945,18.971454417984035,18.942354138541166,2071,3567,1046,108.21144281,-85.4300864287,-683.44069143,
29,1.532989740371704,0.05482077598571777,18.241259486376585,18.91728250768878,2038,3559,1106,30.2697139867,-115.403284574,-582.691994245,
30,1.5871145725250244,0.05412483215332031,18.475807872572858,18.902227047333714,2056,3599,1221,77.4731196941,-32.1230008488,-366.580127333,
31,1.6398041248321533,0.052689552307128906,18.979094644246956,18.904696927246167,2094,3644,1361,236.335139282,17.0161300283,-158.817213598,
32,1.6940271854400635,0.054223060607910156,18.44233779481858,18.88989756187841,2042,3612,1374,364.635014842,-145.476145818,-353.299211272,
33,1.746443271636963,0.052416086196899414,19.078112704629085,18.895546472041254,2022,3575,1323,184.62362484,-178.971881222,-37.6782907836,
34,1.7975234985351562,0.05108022689819336,19.577046946034,18.914912671632607,2044,3526,1233,122.841445946,-247.572760292,22.6784207901,
35,1.8502485752105713,0.05272507667541504,18.966307174026092,18.916377220296877,2082,3520,1207,130.298998829,-196.392693887,179.397172301,
36,1.9028818607330322,0.05263328552246094,18.999383946367097,18.918673167724666,2108,3508,1175,139.828714176,-181.399412985,170.061949673,
37,1.9567501544952393,0.05386829376220703,18.563795697972914,18.908903579233126,2110,3487,1161,114.8144606,-175.044997307,207.042469934,
38,2.0126454830169678,0.055895328521728516,17.890582745412512,18.880622703128903,2132,3428,1209,114.130364709,-260.067552371,304.97130242,
39,2.0661461353302,0.05350065231323242,18.69136088556939,18.8757219700567,2070,3405,1357,60.0199121732,-288.845827334,470.781186109,
40,2.120286464691162,0.054140329360961914,18.470519330106878,18.86537534720637,1992,3417,1529,-120.036335261,-341.3533284,577.674863445,
41,2.1731557846069336,0.052869319915771484,18.914561443066518,18.866571964336103,1993,3438,1455,-189.368492905,-386.236728104,176.243943892,
42,2.224555253982544,0.05139946937561035,19.455453765336177,18.880178374894875,1901,3509,1576,-265.772931463,-194.146183977,380.752710323,
43,2.2791409492492676,0.05458569526672363,18.31981795072265,18.86675767646748,1939,3542,1497,-155.810703685,-61.9488339951,326.63930652,
44,2.3318915367126465,0.052750587463378906,18.95713485075841,18.86880213220741,1961,3571,1479,-155.323660979,84.2116234225,460.356874709,
45,2.385267972946167,0.05337643623352051,18.734858873399233,18.8658048111962,1966,3584,1482,-216.814568763,119.621831042,514.000055258,
46,2.4395570755004883,0.05428910255432129,18.41990294459937,18.855881857391203,1977,3603,1464,-244.095490895,177.015814008,538.500739456,
47,2.4915714263916016,0.05201435089111328,19.225463412845382,18.863597287302085,1997,3622,1453,-211.285537689,252.420775115,545.976787656,
48,2.543837785720825,0.05226635932922363,19.132765565342737,18.869127689444497,2024,3642,1457,-203.316199143,402.867283488,466.87423507,
49,2.5965383052825928,0.05270051956176758,18.97514499506881,18.87127946478229,2042,3642,1454,-52.7911262387,446.839175664,182.88354447,
50,2.6506764888763428,0.05413818359375,18.471251409244644,18.863109176026104,2057,3653,1514,122.551324565,444.955578421,-28.2810748996,
51,2.7031333446502686,0.05245685577392578,19.063285155894917,18.866993779989933,2071,3669,1546,147.176042687,435.867511034,171.705383135,
52,2.758179187774658,0.05504584312438965,18.1666760510917,18.853017320442625,2070,3689,1591,316.702436487,337.316204543,28.1096837119,
53,2.811807155609131,0.053627967834472656,18.646986644852667,18.849087816805998,2066,3696,1629,238.423234821,289.111639074,247.809976349,
54,2.863767623901367,0.05196046829223633,19.245400067909223,18.85627854345065,2081,3700,1664,225.616460094,242.537694601,347.825375978,
55,2.9155702590942383,0.051802635192871094,19.304037261363426,18.864234133423526,2045,3665,1582,148.971637618,152.743071482,188.571693187,
56,2.9674031734466553,0.05183291435241699,19.29276044948782,18.87171938788341,2059,3595,1600,155.348311409,-15.1559328204,257.650857947,
57,3.0206453800201416,0.05324220657348633,18.782091584047574,18.870139598981964,2034,3573,1680,69.9335125954,-92.6146518156,429.051550248,
58,3.0726563930511475,0.05201101303100586,19.22669722667889,18.876175068311497,1988,3562,1735,-68.0762732267,-151.280607171,525.700109918,
59,3.126880645751953,0.054224252700805664,18.44193234930727,18.86864472430532,1964,3572,1799,-147.074811962,-131.990215863,650.523206755,
60,3.1791985034942627,0.05231785774230957,19.113932472645907,18.872681254112912,1921,3538,1795,-257.321353205,-217.58790896,531.671325372,
61,3.23112154006958,0.05192303657531738,19.25927422502422,18.878893673150532,1898,3521,1822,-327.658840673,-280.309297223,522.738959686,
62,3.285273551940918,0.05415201187133789,18.466534583718577,18.872096651851354,1881,3496,1814,-358.569570932,-366.15834492,423.07414983,
63,3.340252161026001,0.05497860908508301,18.188892309960668,18.86085150548896,1885,3467,1824,-342.514354653,-433.346890694,369.007177665,
64,3.391963005065918,0.05171084403991699,19.338303571840232,18.86813031404399,1895,3468,1795,-352.142420462,-439.231406167,248.014285379,
65,3.4454383850097656,0.053475379943847656,18.700194389456602,18.86552384242267,1919,3469,1742,-237.795016981,-369.903359749,301.961926326,
66,3.499264717102051,0.053826332092285156,18.57826757144629,18.86110521374288,1941,3470,1714,-221.862252324,-235.023572377,214.341498008,
67,3.5531790256500244,0.05391430854797363,18.547951869032826,18.856353568546382,1923,3480,1730,-208.43753425,-174.63685302,93.8907811935,
68,3.6051056385040283,0.051926612854003906,19.25794780436739,18.862137983900308,1889,3558,1576,-185.933214941,-7.51245312893,-298.620011875,
69,3.657757043838501,0.052651405334472656,18.992845369414407,18.86401944498491,1971,3562,1320,13.185743471,-18.8367763872,-902.281588947,
70,3.7092130184173584,0.05145597457885742,19.434089203139624,18.87192772494568,2035,3566,1119,215.088449071,52.8287418771,-1275.43676818,
71,3.762248992919922,0.05303597450256348,18.85512634356639,18.87169087787997,2071,3551,1005,325.722195438,56.4836177061,-1538.23718886,
72,3.814979076385498,0.05273008346557617,18.96450629843647,18.872973759063548,2088,3522,964,390.783162432,49.0838754745,-1604.66515974,
73,3.866741180419922,0.05176210403442383,19.31915285620849,18.87894653245768,2081,3481,1057,372.277469767,26.5912478405,-1456.82050669,
74,3.921022891998291,0.05428171157836914,18.422410991154017,18.87262636262932,2023,3471,1151,241.938584197,5.67043556713,-1217.25350174,
75,3.975194215774536,0.05417132377624512,18.45995132277927,18.867002699486175,1967,3453,1275,90.6077804386,-30.2025934795,-881.538197184,
76,4.028740644454956,0.05354642868041992,18.675381806848034,18.86445584542759,1951,3454,1318,18.8865999064,-30.2185598503,-747.909356295,
77,4.080631732940674,0.05189108848571777,19.271131694900458,18.869627312462864,1955,3461,1308,60.6689463485,-36.0221868944,-800.071729971,
78,4.13222599029541,0.05159425735473633,19.38200201476881,18.876024734170898,1943,3503,1226,102.443398014,-104.340497978,-663.98498713,
79,4.183615684509277,0.05138969421386719,19.459154511375868,18.8831876437681,1913,3564,1099,-110.295801027,3.8033034837,-420.265034949,
80,4.238890171051025,0.05527448654174805,18.09152943003304,18.872864540428548,1894,3606,983,-266.199890441,75.5176994158,-256.760178014,
81,4.292027473449707,0.05313730239868164,18.819171370370704,18.872199793934787,1910,3600,970,-303.900603586,92.491488048,-66.0653486057,
82,4.346240043640137,0.05421257019042969,18.445906484185343,18.866882449346257,1945,3563,1025,-269.170913758,77.1748773712,114.821159016,
83,4.398594856262207,0.05235481262207031,19.10044081751612,18.86966240635558,1972,3536,1051,-204.943586838,103.411901615,-11.281298358,
84,4.450883626937866,0.05228877067565918,19.124565123224585,18.87265699143669,1945,3580,959,-147.208492452,205.71443176,-362.359366036,
85,4.504235029220581,0.053351402282714844,18.743649786389717,18.871128937227887,2027,3484,1174,113.412800062,58.5966133654,-190.911546771,
86,4.557633638381958,0.05339860916137695,18.727079519578513,18.86944121084106,2086,3414,1321,255.250119684,-75.6296650916,5.67222488187,
87,4.6112871170043945,0.05365347862243652,18.63812050355716,18.866749736571887,2120,3381,1347,310.936259115,-150.756974116,73.4940248817,
88,4.662744522094727,0.05145740509033203,19.433548937116594,18.873004854331203,2131,3394,1323,354.370278758,-205.459363748,182.839984253,
89,4.715556383132935,0.05281186103820801,18.93514033289844,18.873700740456407,2136,3422,1265,419.219662224,-266.947049488,312.064860669,
90,4.76611852645874,0.050562143325805664,19.77764260419761,18.88329035469259,2131,3451,1205,449.520587368,-293.990257561,421.069917282,
91,4.817579984664917,0.05146145820617676,19.432018346498644,18.8891518749386,2128,3476,1139,414.801557119,-235.942170105,321.566344739,
92,4.870314598083496,0.0527346134185791,18.962877229468546,18.889950155622937,2138,3493,1103,368.26821368,-133.568782164,148.83378584,
93,4.924376964569092,0.0540623664855957,18.497155507730845,18.8856378520847,2143,3501,1066,325.229781117,-66.5674990591,28.5289281682,
94,4.978916645050049,0.05453968048095703,18.33527426603018,18.8796090999943,2123,3521,989,337.100131799,-111.735436945,56.8146289549,
95,5.031503438949585,0.05258679389953613,19.016181171083353,18.881036483964508,2122,3541,963,180.173889137,108.104333482,-400.17569061,
96,5.0842108726501465,0.05270743370056152,18.972655843597757,18.881986291406513,2157,3538,908,134.833022356,235.483024959,-784.310397646,
97,5.135161876678467,0.05095100402832031,19.626698611163103,18.889375316585284,2109,3558,907,-20.9973849606,337.867012547,-839.895398423,
98,5.18700385093689,0.05184197425842285,19.28938884570987,18.893373287605908,1940,3627,1074,-364.323512224,444.436535854,-474.955782952,
99,5.242764234542847,0.05576038360595703,17.933879491696455,18.883168414807137,2026,3595,985,-208.646361593,328.143823233,-531.09982951,
100,5.295742034912109,0.052977800369262695,18.87583087689296,18.88309501119037,2100,3562,957,-58.5321450147,209.582841827,-468.257160118,
101,5.346351146697998,0.05060911178588867,19.759287699627833,18.891389141616596,2128,3558,939,0.0,155.076535726,-378.235452991,
102,5.401179313659668,0.05482816696166992,18.238800518337495,18.88476461835666,2142,3551,964,7.534876368,109.255707336,-261.836953788,
103,5.454129934310913,0.05295062065124512,18.885519899500654,18.884771950892887,2133,3541,1010,-18.8767228712,75.5068914847,-105.709648079,
104,5.507503032684326,0.053373098373413086,18.736030518665434,18.883330500738914,2118,3545,1063,-9.45919175554,45.4041204266,139.996037982,
105,5.5611982345581055,0.0536952018737793,18.62363796211603,18.88082308368627,2078,3558,1150,-83.0667024951,32.0939532367,353.033485604,
106,5.613679885864258,0.052481651306152344,19.054278497574096,18.882444698515386,2073,3548,1198,-158.649510932,18.8868465395,547.718549646,
107,5.667203187942505,0.05352330207824707,18.68345115437898,18.88056532500058,2070,3523,1169,-73.3025785297,-65.7843653472,492.442963456,
108,5.7210774421691895,0.05387425422668457,18.56174186267785,18.87756302754241,2091,3535,1122,282.732571838,-172.260904696,89.8752546241,
109,5.773210525512695,0.05213308334350586,19.181677657754893,18.880309234924386,2103,3548,1082,145.160785005,-88.6046350028,182.864885006,
110,5.826490879058838,0.05328035354614258,18.768644227068922,18.87928811411243,2112,3559,1024,22.609564076,-5.652391019,126.236732758,
111,5.882389545440674,0.05589866638183594,17.889514450472582,18.869882577911547,2179,3465,1242,95.1424377799,-173.495033599,565.258012692,
112,5.933841705322266,0.0514521598815918,19.435530059405206,18.874787289917656,2197,3438,1259,103.254896274,-212.141877799,553.821716377,
113,5.985780954360962,0.05193924903869629,19.253262580962044,18.87807135970678,2192,3436,1245,110.97505276,-197.497975251,442.019277943,
114,6.037761211395264,0.05198025703430176,19.23807339659941,18.88117068704938,2193,3446,1237,141.440534085,-186.701504993,328.142039078,
115,6.0888917446136475,0.05113053321838379,19.55778547680887,18.886852455823547,2188,3457,1269,208.454335526,-191.398980801,225.509690251,
116,6.1405017375946045,0.05160999298095703,19.376092540236893,18.890964445104164,2182,3473,1291,206.901060846,-142.363115261,176.530262924,
117,6.192219257354736,0.051717519760131836,19.335807375103148,18.89467978076432,2198,3484,1267,243.802061417,-74.2834405881,186.660953273,
118,6.247793436050415,0.05557417869567871,17.9939681245844,18.886667942497553,2213,3493,1258,231.623875898,-79.7393671123,258.203664935,
119,6.30014967918396,0.05235624313354492,19.099918942795473,18.88844012598344,2245,3491,1225,269.480829069,-108.171882091,271.378581386,
120,6.351950407028198,0.05180072784423828,19.304748053095715,18.891835154636038,2288,3492,1216,334.944920839,-127.507441456,365.394459098,
121,6.405331134796143,0.053380727767944336,18.733352687643762,18.890514393968324,2318,3475,1173,265.804064602,19.1225945757,-131.945902572,
122,6.459523439407349,0.054192304611206055,18.45280445580491,18.886842217448987,2341,3489,1151,273.930004912,97.0168767396,-205.447503684,
123,6.512338638305664,0.05281519889831543,18.933943653706386,18.887224211055663,2353,3492,1170,305.759473101,106.351121078,-142.434537159,
124,6.566471338272095,0.054132699966430664,18.47312254183018,18.883810438229894,2358,3509,1208,312.080271612,119.157921888,-54.8504719804,
125,6.620845317840576,0.054373979568481445,18.391149736254775,18.87976444082965,2358,3522,1247,319.576761124,122.191114547,-41.356992616,
126,6.674855709075928,0.05401039123535156,18.51495568033337,18.876812547224866,2366,3532,1283,344.341035756,110.413701683,-14.9713493807,
127,6.727753400802612,0.05289769172668457,18.904416570138235,18.877029586852732,2367,3555,1295,315.572782926,132.577914721,52.2842480588,
128,6.779566049575806,0.05181264877319336,19.30030646333944,18.880264468845894,2385,3565,1305,323.4465176,135.39621667,88.3836414373,
129,6.833686828613281,0.054120779037475586,18.4771915294781,18.87707225035028,2410,3574,1327,309.256815906,155.565549819,191.176940742,
130,6.886939287185669,0.053252458572387695,18.778475713767644,18.87630986407667,2433,3565,1333,271.033670751,136.45143424,218.69613433,
131,6.939234495162964,0.05229520797729492,19.122210976465976,18.878163015144445,error,error,error,nan,nan,nan,
132,6.968295574188232,0.029061079025268555,34.41028459853476,18.942939287614426,2498,3586,1344,352.478647482,217.361832614,334.854715108,
133,7.020083665847778,0.0517880916595459,19.309458370738668,18.94564314767868,2550,3591,1299,411.202802491,200.682707436,291.186673534,
134,7.075160980224609,0.055077314376831055,18.156295587656,18.939498390854425,2596,3588,1281,475.978618656,188.040935765,217.422331979,
135,7.1278088092803955,0.05264782905578613,18.994135521531014,18.939901954753644,2630,3580,1270,534.336772708,139.477613464,121.797352603,
136,7.182446002960205,0.05463719367980957,18.3025505640041,18.935053593712833,2666,3576,1290,604.745116287,106.026741167,84.4287012998,
137,7.2354576587677,0.05301165580749512,18.863775989781736,18.934531367754975,2708,3578,1315,672.822081498,90.4965372776,62.9541128887,
138,7.286823034286499,0.05136537551879883,19.46836735641147,18.93829441866122,2756,3578,1320,767.599903273,45.3850842552,49.3316133209,
139,7.341148614883423,0.05432558059692383,18.407534517111536,18.934366717245283,2788,3580,1305,791.301794948,29.4529204075,0.0,
140,7.392835855484009,0.05168724060058594,19.34713458061183,18.93725259653208,2818,3567,1281,804.965820107,-13.8106880901,-90.7559503062,
141,7.445216178894043,0.05238032341003418,19.091138330169915,18.938335249379552,2845,3550,1271,814.258723679,-29.6453418815,-122.534079777,
142,7.498332500457764,0.0531163215637207,18.826604903360174,18.9375437794111,2886,3538,1288,732.024469938,-90.5597282398,-105.65301628,
143,7.552948474884033,0.05461597442626953,18.30966142241003,18.93300351187628,2942,3529,1341,735.646252769,-116.352213448,78.8192413681,
144,7.604966402053833,0.052017927169799805,19.224141645162916,18.934994895061035,2953,3477,1365,673.832288781,-209.510879705,158.548773831,
145,7.658376932144165,0.05341053009033203,18.722899741094544,18.933515715503365,3014,3434,1432,723.75248993,-275.176727942,305.333081689,
146,7.710575580596924,0.05219864845275879,19.157584145210723,18.935032602157207,3066,3389,1537,757.389884865,-354.079771174,467.688253904,
147,7.76538872718811,0.05481314659118652,18.243798471529296,18.930153423656037,3090,3350,1588,720.848470233,-430.244636684,515.161341292,
