Index,Time,Difference,Hz,AveHz,Position-X,Position-Y,Position-Z,Velocity-X,Velocity-Y,Velocity-Z
0,0.0,0.0,0,0,3330,3158,-529,0,0,0,
1,0.05186724662780762,0.05186724662780762,19.27999007111107,19.27999007111107,3703,3463,-523,0,0,0,
2,0.10630393028259277,0.054436683654785156,18.36996548764037,18.813979828246286,3947,3673,-433,0,0,0,
3,0.15688824653625488,0.05058431625366211,19.768973351055305,19.121891322220485,4108,3829,-319,0,0,0,
4,0.21163249015808105,0.05474424362182617,18.266760737585688,18.900689572816344,4214,3929,-198,0,0,0,
5,0.26772093772888184,0.05608844757080078,17.828983388026458,18.676163479837527,4272,3986,-112,0,0,0,
6,0.3205089569091797,0.05278801918029785,18.943692442493305,18.720225661899917,4301,4012,-48,0,0,0,
7,0.37450504302978516,0.05399608612060547,18.51986082410498,18.69133708686341,4308,4055,-49,0,0,0,
8,0.4262399673461914,0.05173492431640625,19.329302462763604,18.768770206624975,4316,3979,109,0,0,0,
9,0.4795064926147461,0.05326652526855469,18.77351666845705,18.76929747274756,4313,3927,241,0,0,0,
10,0.5307161808013916,0.05120968818664551,19.5275549492758,18.842462999526052,4333,3886,375,0,0,0,
11,0.5862152576446533,0.05549907684326172,18.018317724890455,18.764438244403188,4361,3856,519,1231.40722232,735.475742208,1950.0400086,
12,0.6410117149353027,0.054796457290649414,18.249354966432147,18.7204066952367,4380,3784,701,809.78809815,207.590020542,2120.78453419,
13,0.6970982551574707,0.05608654022216797,17.829589702606654,18.648734097122894,4389,3767,815,520.168074481,-114.770180135,2099.1836173,
14,0.7501070499420166,0.0530087947845459,18.864794116985628,18.664002692791918,4362,3751,872,274.850496297,-330.563434736,1987.09480431,
15,0.8054859638214111,0.05537891387939453,18.05741445521707,18.622298430672263,4347,3693,973,139.466116912,-544.847630068,2017.60982465,
16,0.8590641021728516,0.05357813835144043,18.664328973892303,18.624919792982634,4330,3666,1001,53.8477818939,-642.459742596,1947.80424851,
17,0.9098472595214844,0.05078315734863281,19.69156807511737,18.684454805019474,4369,3768,965,113.945805357,-536.105674387,1894.11551857,
18,0.9635767936706543,0.05372953414916992,18.611737768350803,18.680400065915567,4419,3747,1058,191.686098838,-431.758979906,1766.11755143,
19,1.0181541442871094,0.05457735061645508,18.3226189748115,18.661221492452313,4410,3776,1013,180.080614292,-280.331677918,1433.21890962,
20,1.0704772472381592,0.052323102951049805,19.112016367521953,18.683255577454055,4420,3719,1084,161.18242943,-309.396157641,1313.54416627,
21,1.124260663986206,0.053783416748046875,18.593091708631817,18.678942235283664,4453,3786,1003,170.989286249,-130.100543885,899.552332007,
22,1.1756205558776855,0.05135989189147949,19.470445968090093,18.713521033642877,4459,3831,928,147.771592892,87.9147451381,424.609513752,
23,1.2283556461334229,0.052735090255737305,18.962705764805346,18.724218895723432,4426,3847,848,69.6460898775,150.586140276,62.1167828637,
24,1.280099630355835,0.05174398422241211,19.32591807584205,18.74854068454704,4358,3867,725,-7.54727546728,218.870988551,-277.362373423,
25,1.334294319152832,0.05419468879699707,18.45199266197115,18.73649586987147,4300,3873,608,-88.8790797765,340.387965102,-690.231151456,
26,1.3876683712005615,0.05337405204772949,18.735695747921756,18.73646509468665,4270,3819,596,-113.50646129,289.441476289,-766.168613706,
27,1.4401607513427734,0.052492380142211914,19.050384023182193,18.747907117192167,4199,3931,315,-320.565104644,307.365365041,-1225.69010599,
28,1.4897089004516602,0.04954814910888672,20.18238860552401,18.79561838659269,4147,3947,140,-516.980424677,380.132665204,-1744.80893329,
29,1.5413424968719482,0.051633596420288086,19.367235081983868,18.814767035135645,4117,3910,103,-560.02775779,256.121909706,-1739.33535696,
30,1.5934653282165527,0.05212283134460449,19.185450486920168,18.826892225874012,4089,3883,64,-632.901612941,313.582672273,-1950.33125438,
31,1.6461124420166016,0.05264711380004883,18.994393572987708,18.832249370536836,4056,3888,39,-760.752414217,195.457799119,-1847.26782696,
32,1.6972754001617432,0.0511629581451416,19.54539057657985,18.85374642026305,4044,3857,38,-795.545185763,49.8413851321,-1706.1089526,
33,1.7503881454467773,0.05311274528503418,18.827872568691618,18.852961319374636,4040,3831,39,-739.417565971,-30.6494327864,-1549.71194526,
34,1.803868055343628,0.053479909896850586,18.69861041143769,18.848385223786874,4028,3790,18,-630.049434552,-147.011534729,-1349.83318251,
35,1.8548245429992676,0.05095648765563965,19.624586505214594,18.869709338331642,4022,3748,0,-534.070813306,-240.139754184,0.0,
36,1.9075953960418701,0.05277085304260254,18.949854746382215,18.87192644451624,4011,3707,-21,-498.146831431,-215.414846024,-1209.78516205,
37,1.9595251083374023,0.05192971229553223,19.256798387578108,18.882126002148233,4001,3680,-31,-381.235249076,-483.283068273,-1207.24495541,
38,2.011282444000244,0.0517573356628418,19.32093271790903,18.89341803452613,3993,3672,-25,-295.260374888,-527.250669443,-651.873554948,
39,2.0642282962799072,0.052945852279663086,18.887220753722907,18.893259079087656,3989,3674,-19,-244.795326522,-451.341383276,-304.081694665,
40,2.1168694496154785,0.05264115333557129,18.996544274501456,18.895827518917546,3981,3677,-1,-206.34151621,-393.577336475,-198.699237832,
41,2.169973134994507,0.05310368537902832,18.83108475169822,18.89424313085046,3971,3679,22,-162.256876951,-398.961026856,-80.1739862582,
42,2.2238688468933105,0.05389571189880371,18.554351817035677,18.886005826590427,3969,3685,43,-142.424863935,-326.627687958,7.59599274322,
43,2.2776055335998535,0.05373668670654297,18.609260475269313,18.879476435077258,3954,3695,33,-163.120568351,-257.95810809,-9.48375397389,
44,2.3323986530303955,0.05479311943054199,18.250466671598083,18.86469962706954,3951,3692,30,-145.686929644,-185.419728638,-17.0283424259,
45,2.3864054679870605,0.05400681495666504,18.51618172266589,18.856812307741492,3960,3696,30,-116.633229459,-97.8214182557,22.5741734436,
46,2.4413063526153564,0.0549008846282959,18.214642747024158,18.84237099154741,3970,3684,25,-76.8206076623,-43.0944872252,86.1889744504,
47,2.492833375930786,0.05152702331542969,19.407292245049046,18.8540479495349,3983,3683,37,-33.7515862659,5.62526437765,127.50599256,
48,2.546706199645996,0.05387282371520996,18.562234741700927,18.847874955765302,3961,3685,29,-59.7657456595,24.2798341742,100.8546958,
49,2.6006624698638916,0.05395627021789551,18.533527168605755,18.84135314282613,3948,3680,25,-76.4306265689,11.1849697418,82.0231114398,
50,2.6531150341033936,0.05245256423950195,19.06484486504668,18.845771614609706,3937,3667,12,-82.0519576716,-18.6481721981,24.2426238575,
51,2.7053334712982178,0.05221843719482422,19.150324171308558,18.851650098250715,3934,3648,22,-69.1123295675,-57.9049247728,0.0,
52,2.7593867778778076,0.054053306579589844,18.50025582667302,18.844766676744108,3940,3647,8,-54.1531820357,-70.9593419779,-65.3572886638,
53,2.8142271041870117,0.0548403263092041,18.234756561471542,18.832879521750932,3914,3631,-9,-74.5404251198,-119.264680192,-78.2674463757,
54,2.8685553073883057,0.054328203201293945,18.40664592375444,18.82480698939866,3908,3625,6,-80.2004407676,-124.963477475,-44.7630367075,
55,2.9217610359191895,0.05320572853088379,18.7949686549173,18.824263628629346,3903,3636,2,-106.471293873,-112.075046182,-52.3016882185,
56,2.9750728607177734,0.053311824798583984,18.75756464495586,18.823068416041853,3897,3634,9,-136.763919976,-93.6739177918,-29.9756536934,
57,3.0254464149475098,0.05037355422973633,19.851686371768537,18.84019486128923,3895,3633,0,-165.22314242,-93.8767854657,0.0,
58,3.077596426010132,0.05215001106262207,19.175451349362007,18.845875797689484,3881,3639,5,-150.690285914,-86.6469144008,-60.2761143658,
59,3.132777690887451,0.055181264877319336,18.122092746935582,18.833126963211527,3894,3645,-2,-101.481780386,-65.775228028,-58.2580591105,
60,3.1838157176971436,0.05103802680969238,19.59323395727546,18.845311827092193,3876,3651,8,-114.942380679,-30.1488211616,-32.0331224842,
61,3.2378454208374023,0.05402970314025879,18.508337856383235,18.839688765692713,3848,3643,14,-161.498723314,-9.38946065779,3.75578426312,
62,3.2895545959472656,0.05170917510986328,19.338927721731434,18.847536403981273,3842,3650,41,-184.847130776,5.658585636,35.837709028,
63,3.3417117595672607,0.05215716361999512,19.172821729451506,18.8526134307162,3831,3651,68,-157.350548785,37.9157948881,113.747384664,
64,3.3953471183776855,0.053635358810424805,18.64441708192014,18.849324610609926,3826,3650,93,-155.659215442,47.4570778787,193.624877745,
65,3.4478671550750732,0.052520036697387695,19.040352270921762,18.852234461621737,3832,3654,92,-134.953762017,34.213629807,163.465120189,
66,3.5000717639923096,0.05220460891723633,19.15539682684667,18.85675621825479,3843,3677,89,-102.857357726,81.9049330042,165.714631892,
67,3.5532066822052,0.053134918212890625,18.820015794385814,18.856206799211098,3863,3694,103,-60.6335906382,115.582782154,178.1111725,
68,3.6059398651123047,0.05273318290710449,18.96339164206367,18.857774267925066,3877,3705,99,-7.57083310583,124.918746246,177.914577987,
69,3.6598854064941406,0.05394554138183594,18.537213166920058,18.853049299730984,3875,3704,91,-36.0457633942,111.931581066,176.434526087,
70,3.714216709136963,0.054331302642822266,18.405595878568732,18.84650398233366,3894,3718,96,33.9365881484,126.319522552,165.912208726,
71,3.7678041458129883,0.05358743667602539,18.66109039784305,18.84386694539298,3891,3717,106,81.1383943193,139.633515805,173.598425055,
72,3.8225479125976562,0.05474376678466797,18.266919847394735,18.835604326296483,3927,3736,103,159.476671367,161.3528675,116.324160291,
73,3.8789196014404297,0.05637168884277344,17.73940111656234,18.819673388665127,3902,3724,95,132.164861467,135.887815311,50.2598768958,
74,3.932114601135254,0.05319499969482422,18.79875938973449,18.819390456889334,3967,3751,106,262.683572551,188.163410125,24.2190527884,
75,3.985311508178711,0.05319690704345703,18.798085369570284,18.819106071403446,4019,3779,124,347.942998973,232.582218565,59.5410479526,
76,4.03769850730896,0.05238699913024902,19.0887055300441,18.822603981556906,4040,3778,116,366.425224282,187.862678439,50.2207160184,
77,4.089433193206787,0.05173468589782715,19.329391541584673,18.829015260087758,4136,3816,93,509.113209435,227.515793227,-18.6488355104,
78,4.144444465637207,0.05501127243041992,18.178092522125045,18.820375238881994,4191,3841,93,583.096225536,252.551231442,-11.1419660931,
79,4.194793224334717,0.050348758697509766,19.861462841773292,18.832871079725077,4227,3861,103,658.057310549,293.508516353,22.4337719505,
80,4.2486395835876465,0.05384635925292969,18.57135772732103,18.829556714821692,4273,3869,101,709.176231256,282.547786068,9.35588695589,
81,4.3013715744018555,0.052731990814208984,18.963820340546356,18.831202698702864,4292,3869,98,751.545125347,284.874960231,-14.9934189595,
82,4.353935718536377,0.052564144134521484,19.024375198439696,18.833534829394587,4311,3872,103,722.636078037,255.933610971,0.0,
83,4.406254291534424,0.052318572998046875,19.113671162960262,18.836861086175823,4327,3883,129,805.939772186,301.516291241,64.4751817749,
84,4.459585428237915,0.05333113670349121,18.750772284486807,18.83583157037768,4250,3852,125,536.522562877,191.479783924,36.0209494511,
85,4.51293420791626,0.05334877967834473,18.74457121661058,18.834752753740396,4093,3772,81,140.251736775,-13.2670561814,-81.4976308286,
86,4.565936803817749,0.05300259590148926,18.86700043632961,18.83512709332556,3975,3710,60,-123.050525548,-128.729780573,-106.012760472,
87,4.620248794555664,0.05431199073791504,18.41214042080588,18.83015479653773,3921,3683,65,-405.03707776,-250.557820196,-52.7490147781,
88,4.673803806304932,0.05355501174926758,18.672388770667688,18.828347026738385,3887,3665,56,-574.279089166,-332.477367412,-69.8958101945,
89,4.726684331893921,0.05288052558898926,18.910553343823405,18.829266722861277,3877,3660,56,-658.029425621,-377.896898714,-88.3639514405,
90,4.7790656089782715,0.052381277084350586,19.090790749329777,18.832133174928586,3879,3661,52,-742.799148495,-392.137621541,-92.3785743053,
91,4.8321146965026855,0.05304908752441406,18.850465609607017,18.83233443648649,3885,3672,54,-766.849315708,-371.177678611,-82.9026287252,
92,4.886317253112793,0.05420255661010742,18.4493142490169,18.82808570020542,3891,3696,67,-788.907902927,-330.58997837,-67.6206773938,
93,4.940678358078003,0.05436110496520996,18.395505401149965,18.823326122402833,3926,3728,80,-750.34046014,-290.031848682,-91.687487648,
94,4.99177360534668,0.05109524726867676,19.5712919196114,18.830982218287456,4012,3709,155,-447.210235472,-268.701948204,56.3710380847,
95,5.0447046756744385,0.05293107032775879,18.892495349287643,18.831627638797155,3946,3735,184,-276.435057817,-69.5788921035,193.692591532,
96,5.096155881881714,0.05145120620727539,19.43589030685536,18.837728324070177,3949,3755,185,-49.0363343676,84.8705787131,235.751607536,
97,5.1489341259002686,0.05277824401855469,18.947201040800838,18.838850454906524,3887,3716,278,-64.3104659506,62.4189816579,402.886154337,
98,5.200980186462402,0.05204606056213379,19.21375007443987,18.842602064719177,3746,3723,355,-267.462665831,110.020103675,567.172603429,
99,5.253345966339111,0.052365779876708984,19.096440506651856,18.845132346954475,3563,3738,347,-596.208228326,148.102680922,552.536924978,
100,5.307162761688232,0.053816795349121094,18.581559780971453,18.842459613616512,3460,3721,337,-793.414616704,113.615458239,539.673426637,
101,5.36008882522583,0.052926063537597656,18.894282573832818,18.842971318809198,3351,3690,292,-1011.41319422,34.0925795806,450.779663344,
102,5.414172649383545,0.054083824157714844,18.489816790393398,18.839443550366585,3299,3607,273,-1121.51927248,-168.606782518,390.258395491,
103,5.4681806564331055,0.05400800704956055,18.515773023847153,18.836246728393004,3335,3632,259,-1120.37426537,-181.989728385,339.335014384,
104,5.5203471183776855,0.05216646194458008,19.16940430160602,18.839395018073326,3249,3694,242,-1443.50782094,-28.3782664666,164.593945506,
105,5.5731775760650635,0.05283045768737793,18.92847504591876,18.840239444538774,3100,3701,307,-1600.83894439,-64.336316914,232.74608766,
106,5.627471446990967,0.05429387092590332,18.41828521242727,18.83616842812746,3009,3673,308,-1769.19341673,-154.3338938,231.5008407,
107,5.681929111480713,0.054457664489746094,18.362888114459835,18.831632338354844,2829,3655,241,-1985.00929394,-114.447605794,-69.4190395801,
108,5.737366437911987,0.055437326431274414,18.03838793055251,18.823967611053387,2745,3644,362,-1866.19250082,-147.281925639,13.0502972086,
109,5.791595935821533,0.0542294979095459,18.44014860082214,18.820373729083094,2693,3591,360,-1616.34937172,-273.107307635,24.1523469337,
110,5.843961954116821,0.052366018295288086,19.09635356198125,18.822846702913544,2669,3561,510,-1473.54916169,-298.063041556,322.280663682,
111,5.898785352706909,0.05482339859008789,18.24038687343985,18.817433312616284,2689,3487,533,-1228.89227279,-376.835545886,447.376189943,
112,5.95391583442688,0.0551304817199707,18.138785818694483,18.811149353571782,2614,3532,342,-1269.12209173,-138.954973547,127.838575663,
113,6.00916862487793,0.055252790451049805,18.09863342351789,18.80459794923719,2522,3425,268,-1502.80606487,-382.633278509,16.6362295004,
114,6.061912536621094,0.05274391174316406,18.959534227751057,18.805946029624426,2439,3273,174,-1495.66418518,-777.376076496,-125.561931596,
115,6.116925239562988,0.05501270294189453,18.177619831845366,18.800295164015434,2320,3010,-34,-1434.48892264,-1270.81005839,-627.129131565,
116,6.1683290004730225,0.05140376091003418,19.453829492168477,18.805741391405107,2364,2994,-305,-1192.55060015,-1255.41373256,-1133.38529906,
117,6.220529794692993,0.0522007942199707,19.156796653056006,18.808687340396286,2329,2934,-248,-928.331536859,-1338.65407615,-907.908243049,
118,6.274186849594116,0.05365705490112305,18.636878260328633,18.807218023421402,2197,2841,-189,-1020.82556489,-1495.84476023,-1026.41402601,
119,6.3276731967926025,0.05348634719848633,18.696359956850824,18.806280966014366,2173,2949,-70,-970.009433077,-1197.5885693,-802.123185044,
120,6.382022857666016,0.054349660873413086,18.399378835667818,18.802815764888294,2119,3015,-2,-1022.1891172,-1014.75501453,-951.565141832,
121,6.4349095821380615,0.0528867244720459,18.908336827109903,18.803683013024802,2106,3009,48,-1087.43453102,-891.584401077,-904.641076406,
122,6.48783802986145,0.05292844772338867,18.89343147235561,18.80441519015624,2085,3041,131,-990.781062341,-919.609643874,-395.188665697,
123,6.540182828903198,0.05234479904174805,19.104094739239354,18.80681369585311,2019,3080,244,-947.243964826,-649.700134921,-45.1965311249,
124,6.59361720085144,0.05343437194824219,18.71454577904694,18.80606596087922,1878,3118,224,-1055.09700731,-291.515215922,94.0371664265,
125,6.646731615066528,0.05311441421508789,18.827280970293298,18.80623549123833,1807,3179,215,-968.278268665,318.984458878,469.983019293,
126,6.701290607452393,0.05455899238586426,18.328784243806727,18.802348290921383,1702,3195,202,-1242.11573841,377.137860153,951.288035312,
127,6.754804372787476,0.05351376533508301,18.686780751426802,18.80143272714669,1664,3134,242,-1244.67834942,374.339353209,917.131415363,
128,6.806403636932373,0.05159926414489746,19.380121336456845,18.805819758536867,1634,3074,297,-1057.83961234,437.791526955,913.161725752,
129,6.861521005630493,0.05511736869812012,18.143101233243502,18.80049625937805,1591,3019,371,-1090.19834935,131.123512809,826.078130694,
130,6.91467547416687,0.05315446853637695,18.81309375364438,18.80059309879085,1565,2958,431,-1040.07749674,-107.011583599,812.912556113,
131,6.966533184051514,0.051857709884643555,19.283535702299236,18.804188042898918,1594,2942,433,-963.087414022,-126.029017069,724.196590622,
132,7.021794080734253,0.05526089668273926,18.095978531458574,18.79861449685193,1595,2896,425,-917.67852279,-271.557930214,550.607113674,
133,7.074630975723267,0.05283689498901367,18.926168924345934,18.799567137337917,1508,2826,442,-956.126432546,-475.256582909,370.475604,
134,7.127682209014893,0.05305123329162598,18.849703163410677,18.799940299038663,1484,2737,320,-737.73790452,-713.396298533,179.753398056,
135,7.180504322052002,0.052822113037109375,18.93146529934282,18.800907839495668,1462,2728,272,-646.342526482,-844.928925923,106.787026114,
136,7.234770774841309,0.05426645278930664,18.427591054874565,18.798107670934897,1363,2705,276,-635.450051797,-918.497125016,138.711810717,
137,7.289499998092651,0.05472922325134277,18.271774028429412,18.794155982693876,1319,2672,250,-645.22689858,-864.042977229,14.9617831555,
138,7.342916488647461,0.05341649055480957,18.720810551451716,18.793622426913792,1237,2651,285,-739.963635039,-788.424729525,-22.3666589936,
139,7.393744945526123,0.05082845687866211,19.674018481167035,18.799674728313075,1262,2600,284,-618.16084422,-787.262594919,-163.465025675,
140,7.448388338088989,0.05464339256286621,18.300474276913143,18.79601245870585,1184,2579,317,-713.866998071,-710.119664748,-213.597999423,
141,7.501600503921509,0.05321216583251953,18.79269494775705,18.795988926135344,1110,2539,341,-904.559075141,-753.176254715,-171.940981225,
142,7.55363130569458,0.05203080177307129,19.21938478598562,18.798905354693197,1040,2419,265,-1043.55237647,-896.890961394,-300.84392835,
143,7.6095130443573,0.05588173866271973,17.89493354950189,18.79226688572919,965,2389,209,-1015.177049,-817.002523782,-435.610041284,
144,7.661747217178345,0.05223417282104492,19.144555106214,18.794668620381877,940,2392,204,-1018.60258898,-645.988774262,-217.202022651,
145,7.714954376220703,0.0532071590423584,18.794463339113758,18.794667204633637,969,2397,153,-922.443540149,-619.328218639,-222.658785553,
146,7.769868850708008,0.05491447448730469,18.21013511166684,18.790535954374075,909,2346,40,-848.442594873,-670.905047488,-441.040644031,
147,7.824390411376953,0.05452156066894531,18.341367850271123,18.787406081661846,826,2422,-72,-921.684120254,-467.385456518,-601.992467995,
