Index,Time,Difference,Hz,AveHz,0x6103 Range,0x6103 Smoothed Range,0x6103 Velocity,
0,0.0,0.0,0,0,,0,,
1,0.008296012878417969,0.008296012878417969,120.53983216461663,120.53983216461663,,0,0,
2,0.017174959182739258,0.008878946304321289,112.62597674605945,116.4486028013382,,0,0,
3,0.027274131774902344,0.010099172592163086,99.01801270096084,109.99433546627505,,0,0,
4,0.03430509567260742,0.007030963897705078,142.228009494744,116.60075337419902,,0,0,
5,0.041604042053222656,0.007298946380615234,137.00607565166263,120.18063037249284,,0,0,
6,0.04964804649353027,0.008044004440307617,124.31619194404102,120.85067638626771,,0,0,
7,0.057121992111206055,0.007473945617675781,133.79813704223554,122.54474574997809,,0,0,
8,0.06445598602294922,0.007333993911743164,136.35135398719157,124.1157027238966,,0,0,
9,0.0724630355834961,0.008007049560546875,124.88994759409242,124.20125554400326,,0,0,
10,0.08048510551452637,0.008022069931030273,124.65610604214343,124.2465911682895,,0,0,
11,0.08847498893737793,0.007989883422851562,125.15827166388159,124.32892201643263,,0,0,
12,0.09764790534973145,0.009172916412353516,109.01658262722877,122.89050089729346,,0,0,
13,0.1055910587310791,0.007943153381347656,125.89458518429583,123.11648501516208,,0,0,
14,0.113555908203125,0.007964849472045898,125.55165085161792,123.2872883633432,,0,0,
15,0.12156200408935547,0.008006095886230469,124.90482430017867,123.39381957683165,,0,0,
16,0.12956905364990234,0.008007049560546875,124.88994759409242,123.48627661688613,,0,0,
17,0.13863801956176758,0.009068965911865234,110.26615489773384,122.62148618204957,,0,0,
18,0.14764404296875,0.009006023406982422,111.0367977974268,121.91484084332369,,0,0,
19,0.15665006637573242,0.009006023406982422,111.0367977974268,121.2894474900995,,0,0,
20,0.16367697715759277,0.0070269107818603516,142.31004648322192,122.19189495871152,,0,0,
21,0.17070603370666504,0.007029056549072266,142.26660335119735,123.01849878420599,,0,0,
22,0.1787109375,0.008004903793334961,124.92342516753537,123.10382513661202,,0,0,
23,0.18707013130187988,0.008359193801879883,119.62876130173127,122.9485425596046,,0,0,
24,0.19585108757019043,0.008780956268310547,113.88281292424654,122.5420818324469,,0,0,
25,0.20387911796569824,0.008028030395507812,124.56355428842956,122.62168018701229,,0,0,
26,0.21188712120056152,0.008008003234863281,124.87507443134453,122.70684434562556,,0,0,
27,0.21989011764526367,0.008002996444702148,124.95319808144905,122.78860136660428,,0,0,
28,0.22800111770629883,0.008111000061035156,123.28935920047032,122.80641551971858,,0,0,
29,0.23562002182006836,0.007618904113769531,131.25247214920515,123.07952344621164,,0,0,
30,0.24401497840881348,0.008394956588745117,119.11913890545569,122.94327256312575,,0,0,
31,0.25103092193603516,0.00701594352722168,142.53250416284365,123.49076265552284,,0,0,
32,0.2590351104736328,0.008004188537597656,124.93458834743238,123.5353768896023,,0,0,
33,0.26604199409484863,0.00700688362121582,142.71679880227296,124.04056777681092,,0,0,
34,0.2732059955596924,0.00716400146484375,139.58679446219384,124.44822058296077,,0,0,
35,0.2806251049041748,0.007419109344482422,134.78706857767207,124.7215569396454,,0,0,
36,0.2890970706939697,0.008471965789794922,118.03635954297293,124.52564778184355,,0,0,
37,0.2971029281616211,0.008005857467651367,124.90854403049525,124.53596546134463,,0,0,
38,0.30526208877563477,0.008159160614013672,122.5616270235521,124.48319459652816,,0,0,
39,0.3123900890350342,0.007128000259399414,140.29180185302874,124.84390948659768,,0,0,
40,0.31970810890197754,0.007318019866943359,136.64898677265916,125.1141240595308,,0,0,
41,0.3277139663696289,0.008005857467651367,124.90854403049525,125.10910186157906,,0,0,
42,0.3366880416870117,0.008974075317382812,111.43209351753454,124.74455519582601,,0,0,
43,0.34372997283935547,0.00704193115234375,142.0065005417118,125.09819741584288,,0,0,
44,0.3517630100250244,0.008033037185668945,124.48591695604428,125.08421507102138,,0,0,
45,0.360882043838501,0.009119033813476562,109.66074043087221,124.69448333134035,,0,0,
46,0.3681471347808838,0.0072650909423828125,137.64452612234183,124.95004212752757,,0,0,
47,0.3761270046234131,0.007979869842529297,125.31532715864954,124.95779197523312,,0,0,
48,0.3851759433746338,0.009048938751220703,110.51019655372293,124.61837460423573,,0,0,
49,0.39319491386413574,0.008018970489501953,124.70428732829875,124.62012674185155,,0,0,
50,0.4012179374694824,0.00802302360534668,124.64128852040058,124.6205499070019,,0,0,
51,0.41023898124694824,0.00902104377746582,110.85191743531463,124.31778141848481,,0,0,
52,0.41724109649658203,0.007002115249633789,142.81398753788008,124.62818364879351,,0,0,
53,0.42424511909484863,0.0070040225982666016,142.77509616366547,124.9277778683195,,0,0,
54,0.43123507499694824,0.006989955902099609,143.0624189917457,125.2217250658058,,0,0,
55,0.4382460117340088,0.007010936737060547,142.63429232129496,125.50028643131606,,0,0,
56,0.445310115814209,0.007064104080200195,141.56076816632353,125.75505925260445,,0,0,
57,0.4533119201660156,0.00800180435180664,124.97181336034801,125.74123349574613,,0,0,
58,0.46128201484680176,0.007970094680786133,125.46902390140298,125.736530220591,,0,0,
59,0.46931004524230957,0.008028030395507812,124.56355428842956,125.71646526239961,,0,0,
60,0.47729992866516113,0.007989883422851562,125.15827166388159,125.70712123883771,,0,0,
61,0.4842979907989502,0.0069980621337890625,142.8967020986645,125.95550912645295,,0,0,
62,0.49228692054748535,0.007988929748535156,125.17321236719589,125.94281385954385,,0,0,
63,0.4993429183959961,0.007055997848510742,141.7233992228417,126.16580245569605,,0,0,
64,0.5073339939117432,0.00799107551574707,125.13960079959423,126.14963863654201,,0,0,
65,0.5153720378875732,0.008038043975830078,124.40837634217239,126.12248089055143,,0,0,
66,0.52236008644104,0.006988048553466797,143.10146707608325,126.3496230151757,,0,0,
67,0.530364990234375,0.008004903793334961,124.92342516753537,126.32809712871857,,0,0,
68,0.5383670330047607,0.008002042770385742,124.96808986085868,126.30788259911651,,0,0,
69,0.5453729629516602,0.007005929946899414,142.73622596562873,126.51892317242707,,0,0,
70,0.5523800849914551,0.007007122039794922,142.7119428376999,126.72433692297732,,0,0,
71,0.5595381259918213,0.007158041000366211,139.7030276787796,126.89037029272568,,0,0,
72,0.567655086517334,0.008116960525512695,123.19882508444705,126.8375844947201,,0,0,
73,0.5756089687347412,0.007953882217407227,125.72476844219298,126.82220737536963,,0,0,
74,0.5826699733734131,0.007061004638671875,141.62290653700703,127.00156757962188,,0,0,
75,0.5906469821929932,0.007977008819580078,125.36027258054875,126.97940099775849,,0,0,
76,0.5997860431671143,0.009139060974121094,109.4204320150266,126.7118514440401,,0,0,
77,0.607248067855835,0.007462024688720703,134.011885743498,126.80155619413243,,0,0,
78,0.6153080463409424,0.008059978485107422,124.06981009288292,126.76577279273897,,0,0,
79,0.6243150234222412,0.009006977081298828,111.02504102917041,126.53868165298043,,0,0,
80,0.6332850456237793,0.008970022201538086,111.48244424952821,126.32542099774489,,0,0,
81,0.6404259204864502,0.0071408748626708984,140.03886347701246,126.47832857619909,,0,0,
82,0.6484670639038086,0.008041143417358398,124.36042339965013,126.45206605614685,,0,0,
83,0.6564021110534668,0.007935047149658203,126.02319572141097,126.4468815720175,,0,0,
84,0.6634089946746826,0.00700688362121582,142.71679880227296,126.61872340333774,,0,0,
85,0.6714119911193848,0.008002996444702148,124.95319808144905,126.59887092318257,,0,0,
86,0.6806111335754395,0.009199142456054688,108.70578478125648,126.35702790845941,,0,0,
87,0.6894221305847168,0.008810997009277344,113.49453404048057,126.19264183790132,,0,0,
88,0.6965229511260986,0.007100820541381836,140.82879495013935,126.3418525659874,,0,0,
89,0.7045290470123291,0.008006095886230469,124.90482430017867,126.32552252801938,,0,0,
90,0.712623119354248,0.008094072341918945,123.5472031576777,126.29396599082355,,0,0,
91,0.7205729484558105,0.0079498291015625,125.78886756238003,126.28839341667378,,0,0,
92,0.7286150455474854,0.008042097091674805,124.34567608431414,126.26695065138367,,0,0,
93,0.735584020614624,0.006968975067138672,143.49312350325008,126.43015263204465,,0,0,
94,0.7425880432128906,0.0070040225982666016,142.77509616366547,126.58431664654663,,0,0,
95,0.7495930194854736,0.007004976272583008,142.75565841870596,126.73543847194405,,0,0,
96,0.758430004119873,0.008836984634399414,113.16077161742884,126.5772707811106,,0,0,
97,0.7656199932098389,0.00718998908996582,139.08226945651091,126.69470606864694,,0,0,
98,0.7735891342163086,0.007969141006469727,125.48403889304413,126.68223436111182,,0,0,
99,0.7806270122528076,0.0070378780364990234,142.08828212337815,126.82113025309795,,0,0,
100,0.7886381149291992,0.008011102676391602,124.82676110830035,126.8008711561926,,0,0,
101,0.7956430912017822,0.007004976272583008,142.75565841870596,126.9413398002918,,0,0,
102,0.803645133972168,0.008002042770385742,124.96808986085868,126.9216917868285,,0,0,
103,0.8117549419403076,0.008109807968139648,123.30748199323828,126.8855841564733,,0,0,
104,0.8193600177764893,0.007605075836181641,131.49112797040567,126.92833155592155,,0,0,
105,0.8273749351501465,0.008014917373657227,124.76734985275307,126.90739776996665,,0,0,
106,0.8354010581970215,0.008026123046875,124.59315589353612,126.88516367069396,,0,0,
107,0.8433201313018799,0.007919073104858398,126.27740478699383,126.879456600684,,0,0,
108,0.8524949550628662,0.009174823760986328,108.993919234967,126.68696671880676,,0,0,
109,0.8605599403381348,0.008064985275268555,123.99278682709078,126.66171743617448,,0,0,
110,0.8685870170593262,0.008027076721191406,124.57835333254128,126.64246395532618,,0,0,
111,0.8765931129455566,0.008006095886230469,124.90482430017867,126.62659375341678,,0,0,
112,0.8855991363525391,0.009006023406982422,111.0367977974268,126.46805467910379,,0,0,
113,0.8948400020599365,0.009240865707397461,108.2149694264558,126.27955806610358,,0,0,
114,0.902864933013916,0.008024930953979492,124.61166404230666,126.26473332998846,,0,0,
115,0.9098529815673828,0.006988048553466797,143.10146707608325,126.39404643362508,,0,0,
116,0.9178569316864014,0.008003950119018555,124.93830985076406,126.38135203366642,,0,0,
117,0.9258649349212646,0.008008003234863281,124.87507443134453,126.36832391751574,,0,0,
118,0.934873104095459,0.009008169174194336,111.01034856946245,126.22033887066574,,0,0,
119,0.9428761005401611,0.008002996444702148,124.95319808144905,126.2095835622798,,0,0,
120,0.9498789310455322,0.007002830505371094,142.7994007898679,126.33188933658728,,0,0,
121,0.957888126373291,0.008009195327758789,124.85648795880094,126.31955305482724,,0,0,
122,0.9669101238250732,0.009021997451782227,110.84019978330383,126.17511906625916,,0,0,
123,0.9739139080047607,0.0070037841796875,142.77995642701526,126.29453074757686,,0,0,
124,0.9819540977478027,0.008040189743041992,124.37517421344484,126.27881515480694,,0,0,
125,0.9906880855560303,0.008733987808227539,114.49523653536428,126.17493015457325,,0,0,
126,0.9996249675750732,0.008936882019042969,111.89584889552876,126.0472718140038,,0,0,
127,1.0088379383087158,0.009212970733642578,108.54262201749391,125.8874147942051,,0,0,
128,1.0168941020965576,0.008056163787841797,124.12855874519089,125.87348056803457,,0,0,
129,1.0258510112762451,0.0089569091796875,111.64565587734242,125.74925460132181,,0,0,
130,1.0339100360870361,0.008059024810791016,124.08449204189101,125.73627826653227,,0,0,
131,1.0411860942840576,0.007276058197021484,137.43705354217184,125.81804609105778,,0,0,
132,1.049232006072998,0.00804591178894043,124.28672178267698,125.80630331135399,,0,0,
133,1.0573649406433105,0.0081329345703125,122.95684803001876,125.78438615439772,,0,0,
134,1.0654230117797852,0.00805807113647461,124.09917746612226,125.77164048311056,,0,0,
135,1.073375940322876,0.00795292854309082,125.73984471025572,125.77140489975156,,0,0,
136,1.0804381370544434,0.007062196731567383,141.59900070895648,125.87486070305842,,0,0,
137,1.088076114654541,0.007637977600097656,130.92470970158573,125.91030917308285,,0,0,
138,1.0950801372528076,0.0070040225982666016,142.77509616366547,126.01817465724122,,0,0,
139,1.1030471324920654,0.007966995239257812,125.5178357672971,126.01456085195876,,0,0,
140,1.1111979484558105,0.008150815963745117,122.68710328487437,125.99015341465727,,0,0,
141,1.118222951889038,0.007025003433227539,142.34868488036653,126.09292249081962,,0,0,
142,1.1272289752960205,0.009006023406982422,111.0367977974268,125.97263121515265,,0,0,
143,1.1342389583587646,0.007009983062744141,142.6536970274131,126.07572588312425,,0,0,
144,1.1432650089263916,0.009026050567626953,110.79042738654974,125.955048808173,,0,0,
145,1.1518709659576416,0.00860595703125,116.19858156028369,125.8821554543221,,0,0,
146,1.158107042312622,0.006236076354980469,160.35724116837437,126.06779396527357,,0,0,
147,1.1651690006256104,0.007061958312988281,141.60378122889938,126.16195583736932,,0,0,
148,1.1731760501861572,0.008007049560546875,124.88994759409242,126.1532742477275,,0,0,
149,1.1801819801330566,0.007005929946899414,142.73622596562873,126.25171584402719,,0,0,
150,1.187230110168457,0.007048130035400391,141.88160476287126,126.34450450276769,,0,0,
151,1.1954379081726074,0.00820779800415039,121.83535699761808,126.31354499275034,,0,0,
152,1.2034680843353271,0.008030176162719727,124.53026929129183,126.30164603322179,,0,0,
153,1.2117021083831787,0.008234024047851562,121.44730136668983,126.26865872516625,,0,0,
154,1.2197279930114746,0.008025884628295898,124.59685708344473,126.25765816834151,,0,0,
155,1.2277209758758545,0.007992982864379883,125.1097390007457,126.25018472900425,,0,0,
156,1.2357220649719238,0.008001089096069336,124.98298519026193,126.2419798286473,,0,0,
157,1.2437479496002197,0.008025884628295898,124.59685708344473,126.23136387920464,,0,0,
158,1.2517380714416504,0.007990121841430664,125.1545370453257,126.22449025460128,,0,0,
159,1.2607951164245605,0.009057044982910156,110.41128777508688,126.11089456858134,,0,0,
160,1.268800973892212,0.008005857467651367,124.90854403049525,126.1033079988733,,0,0,
161,1.276806116104126,0.008005142211914062,124.91970455086967,126.09588720584586,,0,0,
162,1.2837719917297363,0.0069658756256103516,143.55697025704214,126.19063279432002,,0,0,
163,1.2908151149749756,0.007043123245239258,141.98246504857656,126.27679836485336,,0,0,
164,1.3008201122283936,0.010004997253417969,99.95005242588886,126.0743114734418,,0,0,
165,1.3079729080200195,0.0071527957916259766,139.80547315089498,126.14940186320324,,0,0,
166,1.3170180320739746,0.009045124053955078,110.55680320522958,126.04231374007192,,0,0,
167,1.3255469799041748,0.008528947830200195,117.24775668800493,125.98572704837109,,0,0,
168,1.333569049835205,0.008022069931030273,124.65610604214343,125.97772872785289,,0,0,
169,1.3417539596557617,0.00818490982055664,122.17605592775998,125.95453792687772,,0,0,
170,1.3507471084594727,0.008993148803710938,111.19575821845174,125.85627534223266,,0,0,
171,1.3587939739227295,0.008046865463256836,124.27199194097953,125.84689311385205,,0,0,
172,1.3658170700073242,0.0070230960845947266,142.38734426452118,125.93194489733361,,0,0,
173,1.3728220462799072,0.007004976272583008,142.75565841870596,126.01778975563356,,0,0,
174,1.3798189163208008,0.006996870040893555,142.92104814802195,126.10350383074898,,0,0,
175,1.3888640403747559,0.009045124053955078,110.55680320522958,126.00225429753363,,0,0,
176,1.3958690166473389,0.007004976272583008,142.75565841870596,126.08632894705603,,0,0,
177,1.403623104095459,0.007754087448120117,128.96424069120314,126.10222750220733,,0,0,
178,1.4118449687957764,0.008221864700317383,121.6269102508337,126.0761655380788,,0,0,
179,1.4195289611816406,0.007683992385864258,130.14068075335877,126.09816699406913,,0,0,
180,1.4264800548553467,0.006951093673706055,143.86225347281768,126.18472959879767,,0,0,
181,1.435802936553955,0.009322881698608398,107.26297215047438,126.06186781760933,,0,0,
182,1.44256591796875,0.006762981414794922,147.86378058238736,126.1640786968479,,0,0,
183,1.4506199359893799,0.008054018020629883,124.16162931825582,126.15296085475813,,0,0,
184,1.4595811367034912,0.008961200714111328,111.59218858085457,126.06356397258575,,0,0,
185,1.4666340351104736,0.007052898406982422,141.78568048137382,126.13917008005679,,0,0,
186,1.474586009979248,0.007951974868774414,125.75492459448925,126.13709796596916,,0,0,
187,1.4838480949401855,0.0092620849609375,107.9670510708402,126.0236816946805,,0,0,
188,1.49070405960083,0.006855964660644531,145.85839476978717,126.11490442331073,,0,0,
189,1.498763084411621,0.008059024810791016,124.08449204189101,126.1039866579026,,0,0,
190,1.5077180862426758,0.008955001831054688,111.66943556975505,126.01825350088586,,0,0,
191,1.515761137008667,0.008043050765991211,124.33093226619238,126.00930010445826,,0,0,
192,1.5237281322479248,0.007966995239257812,125.5178357672971,126.0067304242433,,0,0,
193,1.5307891368865967,0.007061004638671875,141.62290653700703,126.07876248229331,,0,0,
194,1.5388031005859375,0.00801396369934082,124.78219736411508,126.07201007466756,,0,0,
195,1.545846939086914,0.0070438385009765625,141.96804765773084,126.14444229205559,,0,0,
196,1.5538101196289062,0.007963180541992188,125.57796407185629,126.1415391262932,,0,0,
197,1.561819076538086,0.008008956909179688,124.8602048106692,126.13496848602234,,0,0,
198,1.57082200050354,0.009002923965454102,111.0750244961733,126.04865474033943,,0,0,
199,1.577883005142212,0.007061004638671875,141.62290653700703,126.11834930186377,,0,0,
200,1.5848510265350342,0.006968021392822266,143.51276260863614,126.194826296867,,0,0,
201,1.5928409099578857,0.007989883422851562,125.15827166388159,126.18962681295923,,0,0,
202,1.5998599529266357,0.00701904296875,142.4695652173913,126.26105155671901,,0,0,
203,1.6088740825653076,0.009014129638671875,110.93694456199746,126.17519431745822,,0,0,
204,1.6159329414367676,0.007058858871459961,141.66595737494512,126.24286241644306,,0,0,
205,1.6229970455169678,0.007064104080200195,141.56076816632353,126.3095336903106,,0,0,
206,1.6300599575042725,0.0070629119873046875,141.58466108560626,126.37571952592428,,0,0,
207,1.6380839347839355,0.008023977279663086,124.62647452087357,126.36715103814473,,0,0,
208,1.6453349590301514,0.00725102424621582,137.91155098148818,126.41802744081141,,0,0,
209,1.6533961296081543,0.00806117057800293,124.05146254177635,126.40648919961596,,0,0,
210,1.6614329814910889,0.00803685188293457,124.42682963006912,126.39691298985227,,0,0,
211,1.6694400310516357,0.008007049560546875,124.88994759409242,126.38968520904827,,0,0,
212,1.677443027496338,0.008002996444702148,124.95319808144905,126.3828318011014,,0,0,
213,1.6856310367584229,0.008188009262084961,122.12980811227906,126.36217259597494,,0,0,
214,1.693692922592163,0.008061885833740234,124.040456615603,126.35112135467702,,0,0,
215,1.7016611099243164,0.00796818733215332,125.49905747883068,126.34713148587053,,0,0,
216,1.7096989154815674,0.008037805557250977,124.41206656186041,126.33803416735498,,0,0,
217,1.7179510593414307,0.008252143859863281,121.18063099503063,126.31326068344814,,0,0,
218,1.7260220050811768,0.008070945739746094,123.90121706250738,126.30198187406494,,0,0,
219,1.7340540885925293,0.008032083511352539,124.5006975570661,126.29363838226904,,0,0,
220,1.7412769794464111,0.007222890853881836,138.44872091104142,126.34405818076264,,0,0,
221,1.7503180503845215,0.009041070938110352,110.60636586587907,126.26276690196347,,0,0,
222,1.7582759857177734,0.007957935333251953,125.66073461561507,126.26004211129226,,0,0,
223,1.766530990600586,0.0082550048828125,121.13863216266174,126.23610974647231,,0,0,
224,1.7753491401672363,0.00881814956665039,113.4024766127724,126.17236516018444,,0,0,
225,1.7843530178070068,0.009003877639770508,111.06325963193433,126.09612434008599,,0,0,
226,1.7923610210418701,0.008008003234863281,124.87507443134453,126.09066887017543,,0,0,
227,1.8004209995269775,0.008059978485107422,124.06981009288292,126.08162205375267,,0,0,
228,1.8076450824737549,0.007224082946777344,138.42587458745874,126.13095469381796,,0,0,
