Index,Time,Difference,Hz,AveHz,0x6103 Linear-Acceleration-X,0x6103 Linear-Acceleration-Y,0x6103 Linear-Acceleration-Z,0x6103 Range,0x6103 Smoothed Range,0x6103 Velocity,
0,7.152557373046875e-07,7.152557373046875e-07,1398101.3333333333,0.0,-12.0,-32.0,-43.0,,0,0,
1,0.02022409439086914,0.020223379135131836,49.44772054749301,49.44597175394337,192.0,-128.0,-53.0,,0,0,
2,0.04105496406555176,0.020830869674682617,48.005676940861385,48.71518086842396,16.0,41.0,26.0,,0,0,
3,0.06237912178039551,0.02132415771484375,46.895169946332736,48.09301436723399,35.0,66.0,63.0,,0,0,
4,0.08295798301696777,0.020578861236572266,48.59355376879765,48.217180005230624,3.0,21.0,27.0,,0,0,
5,0.10506296157836914,0.022104978561401367,45.23867766812274,47.590510726945126,-42.0,11.0,-5.0,,0,0,
6,0.1266169548034668,0.021553993225097656,46.39511526038671,47.38701866044024,-49.0,-22.0,-21.0,,0,0,
7,0.1465609073638916,0.019943952560424805,50.140512366857536,47.761713037296595,9.0,3.0,37.0,,0,0,
8,0.16799283027648926,0.021431922912597656,46.6593690206025,47.621079940336045,17.0,36.0,50.0,,0,0,
9,0.18927597999572754,0.02128314971923828,46.98552672850293,47.54961511863869,19.0,14.0,113.0,,0,0,
10,0.21231913566589355,0.023043155670166016,43.39683393688567,47.09891064993807,-50.0,-39.0,55.0,,0,0,
11,0.23511981964111328,0.022800683975219727,43.858333420472015,46.7846565074369,-37.0,-38.0,32.0,,0,0,
12,0.2553107738494873,0.020190954208374023,49.52712931146457,47.001541764447154,24.0,42.0,89.0,,0,0,
13,0.2774848937988281,0.02217411994934082,45.097618407612494,46.84939717628298,48.0,14.0,77.0,,0,0,
14,0.29908204078674316,0.02159714698791504,46.30241209913341,46.80989859228134,230.0,43.0,118.0,,0,0,
15,0.3216879367828369,0.02260589599609375,44.23624704691191,46.629041020354165,33.0,-136.0,-60.0,,0,0,
16,0.34488987922668457,0.023201942443847656,43.09983969748037,46.39161936521696,190.0,-521.0,-128.0,,0,0,
17,0.3662838935852051,0.021394014358520508,46.742045847124245,46.41208717534137,33.0,238.0,-87.0,,0,0,
18,0.39145398139953613,0.025170087814331055,39.729698496746266,45.982416466032475,-77.0,549.0,-10.0,,0,0,
19,0.4136178493499756,0.022163867950439453,45.11847851810417,45.93612202630907,-46.0,-75.0,-337.0,,0,0,
20,0.4373767375946045,0.023758888244628906,42.08951150002007,45.72716900764299,219.0,-457.0,52.0,,0,0,
21,0.4617788791656494,0.024402141571044922,40.980009770395704,45.476311168547134,109.0,-299.0,154.0,,0,0,
22,0.4884340763092041,0.026655197143554688,37.51613595706619,45.04190241237972,-181.0,-131.0,-116.0,,0,0,
23,0.5140910148620605,0.025656938552856445,38.9758114725916,44.739159672283506,-470.0,311.0,-337.0,,0,0,
24,0.5362379550933838,0.022146940231323242,45.15296422688958,44.756250041682506,-194.0,214.0,-154.0,,0,0,
25,0.5564827919006348,0.020244836807250977,49.3953104942706,44.925019001241616,30.0,-69.0,-100.0,,0,0,
26,0.5762069225311279,0.019724130630493164,50.699319464758425,45.122678994880395,36.0,-177.0,-67.0,,0,0,
27,0.596005916595459,0.019798994064331055,50.50761653601146,45.30156370633203,51.0,-177.0,-96.0,,0,0,
28,0.6194419860839844,0.02343606948852539,42.66927099228875,45.20197311294901,72.0,-130.0,-131.0,,0,0,
29,0.6450257301330566,0.025583744049072266,39.08732037351127,44.95944680225058,-108.0,267.0,-122.0,,0,0,
30,0.6651527881622314,0.020127058029174805,49.684360155889074,45.10241937478426,6.0,216.0,-63.0,,0,0,
31,0.6883747577667236,0.023221969604492188,43.06266940451745,45.0336094550772,95.0,-24.0,-34.0,,0,0,
32,0.7095489501953125,0.021174192428588867,47.22730292418732,45.099073138212084,69.0,-125.0,87.0,,0,0,
33,0.7542400360107422,0.04469108581542969,22.37582689599249,43.7526495869148,25.0,-33.0,-58.0,,0,0,
34,0.7771620750427246,0.022922039031982422,43.62613633999709,43.748918136710216,115.0,206.0,-25.0,,0,0,
35,0.7998149394989014,0.022652864456176758,44.14452759096124,43.760122837825634,46.0,-46.0,-152.0,,0,0,
36,0.8238859176635742,0.02407097816467285,41.54380404314537,43.695369987741735,92.0,-265.0,-1.0,,0,0,
37,0.8478360176086426,0.02395009994506836,41.75347920441197,43.64051447632535,50.0,-146.0,-36.0,,0,0,
38,0.870872974395752,0.023036956787109375,43.40851134293757,43.63437736297419,55.0,6.0,-5.0,,0,0,
39,0.8950390815734863,0.024166107177734375,41.38026835043409,43.573516288738666,-8.0,-78.0,-115.0,,0,0,
40,0.9178440570831299,0.022804975509643555,43.85007997825428,43.58038785708144,197.0,-224.0,-78.0,,0,0,
41,0.9398510456085205,0.022006988525390625,45.44011093777085,43.623934017601634,294.0,-139.0,-39.0,,0,0,
42,0.9622690677642822,0.02241802215576172,44.60696813715064,43.64683580402517,50.0,62.0,-141.0,,0,0,
43,0.9903318881988525,0.028062820434570312,35.634336980901246,43.419787358564655,83.0,90.0,-52.0,,0,0,
44,1.0107967853546143,0.02046489715576172,48.86415956009134,43.530015763320456,83.0,-43.0,-84.0,,0,0,
45,1.0304179191589355,0.01962113380432129,50.96545439080404,43.67160077799368,117.0,-225.0,-37.0,,0,0,
46,1.052886724472046,0.02246880531311035,44.50614912829872,43.68941020038599,57.0,-333.0,8.0,,0,0,
47,1.0743119716644287,0.021425247192382812,46.67390723760349,43.74893070137069,-7.0,-226.0,-20.0,,0,0,
48,1.0947821140289307,0.020470142364501953,48.85163875235855,43.84434070022773,-32.0,-134.0,-3.0,,0,0,
49,1.11444091796875,0.019658803939819336,50.867794554605545,43.968234843091075,107.0,-191.0,28.0,,0,0,
50,1.1387908458709717,0.02434992790222168,41.06788340464697,43.90621875938854,138.0,-133.0,-5.0,,0,0,
51,1.159830093383789,0.021039247512817383,47.53021700946229,43.97195786773231,40.0,65.0,153.0,,0,0,
52,1.1800258159637451,0.020195722579956055,49.51543556022525,44.066832518855364,184.0,-277.0,-207.0,,0,0,
53,1.2033898830413818,0.02336406707763672,42.80076737826034,44.042251598501636,433.0,221.0,190.0,,0,0,
54,1.2249679565429688,0.021578073501586914,46.34334014695321,44.08278576722576,-8.0,57.0,-88.0,,0,0,
55,1.2468271255493164,0.021859169006347656,45.74739322019109,44.1119693925239,-120.0,-90.0,-47.0,,0,0,
56,1.2662768363952637,0.019449710845947266,51.41464610556768,44.22413676887303,-81.0,-138.0,-10.0,,0,0,
57,1.290522813796997,0.0242459774017334,41.24395496337086,44.1681459565164,45.0,-124.0,-19.0,,0,0,
58,1.310582160949707,0.02005934715270996,49.85207107624651,44.25514227812362,116.0,-162.0,-104.0,,0,0,
59,1.330759048461914,0.02017688751220703,49.561658080068064,44.335599346998215,-1.0,-137.0,-100.0,,0,0,
60,1.3504929542541504,0.019733905792236328,50.6742056300592,44.428221421663594,-68.0,66.0,-83.0,,0,0,
61,1.3728458881378174,0.022352933883666992,44.73685670097595,44.43324667908852,19.0,18.0,-150.0,,0,0,
62,1.396143913269043,0.023298025131225586,42.9220929399605,44.408029437902464,77.0,89.0,-146.0,,0,0,
63,1.4152650833129883,0.019121170043945312,52.298054862842896,44.51462891497581,88.0,126.0,-135.0,,0,0,
64,1.4372739791870117,0.022008895874023438,45.436172978594335,44.528740467563004,133.0,133.0,-131.0,,0,0,
65,1.460576057434082,0.023302078247070312,42.914627158876975,44.502988850981865,92.0,88.0,-35.0,,0,0,
66,1.4817869663238525,0.021210908889770508,47.145551621424154,44.54081558278151,-38.0,-86.0,-177.0,,0,0,
67,1.5052878856658936,0.023500919342041016,42.55152683372223,44.50975832464183,28.0,45.0,-155.0,,0,0,
68,1.527472972869873,0.022185087203979492,45.07532428453214,44.51797263046761,17.0,140.0,-125.0,,0,0,
69,1.5474960803985596,0.020023107528686523,49.94229784599264,44.588158169828105,-76.0,81.0,-150.0,,0,0,
70,1.5707058906555176,0.023209810256958008,43.085229432248916,44.56594988052552,-98.0,74.0,-137.0,,0,0,
71,1.5938918590545654,0.02318596839904785,43.12953346563975,44.54505467021736,-51.0,-6.0,-93.0,,0,0,
72,1.6133558750152588,0.01946401596069336,51.37685881574757,44.6274756332474,-43.0,12.0,-108.0,,0,0,
73,1.6368720531463623,0.023516178131103516,42.52391670215139,44.597254782180975,121.0,43.0,-71.0,,0,0,
74,1.6577768325805664,0.0209047794342041,47.83595077610885,44.638095155913376,152.0,126.0,-34.0,,0,0,
75,1.6810078620910645,0.023231029510498047,43.04587532584823,44.616091150641545,90.0,114.0,-21.0,,0,0,
76,1.7044298648834229,0.0234220027923584,42.69489713861094,44.58969040958346,48.0,62.0,-100.0,,0,0,
77,1.7260050773620605,0.021575212478637695,46.349485595570926,44.61168800133713,18.0,129.0,-83.0,,0,0,
78,1.7501120567321777,0.024106979370117188,41.48176279768969,44.568574737804035,-5.0,84.0,-33.0,,0,0,
79,1.7730798721313477,0.022967815399169922,43.53918658002367,44.555240427515145,58.0,-43.0,13.0,,0,0,
80,1.7962939739227295,0.023214101791381836,43.077264370885416,44.536140053566385,109.0,35.0,-54.0,,0,0,
81,1.8195819854736328,0.02328801155090332,42.94054895215864,44.515718800610074,106.0,116.0,-47.0,,0,0,
82,1.8462588787078857,0.02667689323425293,37.48562440232011,44.41413982928989,41.0,101.0,-119.0,,0,0,
83,1.8700690269470215,0.023810148239135742,41.998898535051616,44.38338842256616,12.0,48.0,-145.0,,0,0,
84,1.8940277099609375,0.023958683013916016,41.738521245895114,44.34993192456113,124.0,-17.0,-36.0,,0,0,
85,1.9130609035491943,0.019033193588256836,52.53979030702359,44.43141347058229,196.0,-19.0,21.0,,0,0,
86,1.9348409175872803,0.021780014038085938,45.91365268412295,44.448098661899714,147.0,-4.0,-92.0,,0,0,
87,1.962756872177124,0.02791595458984375,35.82180923749658,44.325408425903554,36.0,-49.0,-83.0,,0,0,
88,1.9842450618743896,0.021488189697265625,46.53719154979584,44.34936071700338,35.0,-40.0,39.0,,0,0,
89,2.0061020851135254,0.021857023239135742,45.75188437414781,44.364641590491885,68.0,7.0,71.0,,0,0,
90,2.0295889377593994,0.023486852645874023,42.57701170427668,44.343954741572986,87.0,-18.0,34.0,,0,0,
91,2.055619955062866,0.026031017303466797,38.41570954919309,44.26888334873018,46.0,-88.0,154.0,,0,0,
92,2.075078010559082,0.01945805549621582,51.39259676767182,44.335682577645706,18.0,-50.0,165.0,,0,0,
93,2.0953369140625,0.02025890350341797,49.36101303958951,44.384270317506555,78.0,-79.0,87.0,,0,0,
94,2.1162519454956055,0.02091503143310547,47.81250284984725,44.418151723416905,91.0,-55.0,44.0,,0,0,
95,2.1394708156585693,0.023218870162963867,43.068417755963324,44.40350356952975,106.0,-49.0,21.0,,0,0,
96,2.163455009460449,0.023984193801879883,41.69412606737775,44.3734672457745,43.0,0.0,30.0,,0,0,
97,2.183350086212158,0.019895076751708984,50.263691489106726,44.42714002328549,34.0,50.0,19.0,,0,0,
98,2.2084438800811768,0.025093793869018555,39.85049073167951,44.375137119806624,15.0,28.0,7.0,,0,0,
99,2.2335169315338135,0.02507305145263672,39.88345821764102,44.32471435621227,-3.0,-10.0,-3.0,,0,0,
100,2.2536258697509766,0.020108938217163086,49.72912986258492,44.37293755908557,-11.0,-63.0,58.0,,0,0,
101,2.274925947189331,0.021300077438354492,46.94818612252208,44.39704955002399,-35.0,-29.0,60.0,,0,0,
102,2.2940149307250977,0.0190889835357666,52.38623618310123,44.463529262104494,7.0,-15.0,75.0,,0,0,
103,2.3149237632751465,0.020908832550048828,47.82667791739834,44.49390586162369,-21.0,67.0,63.0,,0,0,
104,2.3391640186309814,0.02424025535583496,41.25369082629265,44.4603282077103,-6.0,63.0,53.0,,0,0,
105,2.359623908996582,0.020459890365600586,48.87611722892268,44.49861674975599,39.0,-1.0,58.0,,0,0,
106,2.3804030418395996,0.020779132843017578,48.125203662482505,44.53027413293932,26.0,-21.0,49.0,,0,0,
107,2.4023029804229736,0.021899938583374023,45.662228512329214,44.54059328568144,0.0,15.0,2.0,,0,0,
108,2.4259588718414307,0.02365589141845703,42.272767587180006,44.518479374723405,36.0,5.0,-21.0,,0,0,
109,2.4464540481567383,0.020495176315307617,48.7919686376697,44.55428054417176,39.0,23.0,-13.0,,0,0,
110,2.4666388034820557,0.020184755325317383,49.54233944791581,44.595098335726085,49.0,-4.0,-4.0,,0,0,
111,2.492800712585449,0.026161909103393555,38.22351022044819,44.52822860631908,58.0,-57.0,-9.0,,0,0,
112,2.513654947280884,0.02085423469543457,47.951891527283955,44.55663261226632,46.0,-65.0,-9.0,,0,0,
113,2.5337297916412354,0.020074844360351562,49.81358669833729,44.598283673652396,70.0,-45.0,-19.0,,0,0,
114,2.554832935333252,0.0211031436920166,47.38630483657768,44.621312972517266,78.0,-66.0,-16.0,,0,0,
115,2.573922872543335,0.019089937210083008,52.383619128501664,44.67888343770248,39.0,-33.0,-28.0,,0,0,
116,2.5942978858947754,0.02037501335144043,49.07972244000047,44.713446605608866,44.0,-25.0,-77.0,,0,0,
117,2.6142778396606445,0.01997995376586914,50.050165867163074,44.75423316719373,2.0,-7.0,-100.0,,0,0,
118,2.6334359645843506,0.019158124923706055,52.197175035778734,44.80838022527143,15.0,5.0,-67.0,,0,0,
119,2.655858039855957,0.022422075271606445,44.59890477962677,44.80661172931294,27.0,29.0,-87.0,,0,0,
120,2.675503969192505,0.01964592933654785,50.901129840657276,44.85136310084311,25.0,57.0,-107.0,,0,0,
121,2.697119951248169,0.021615982055664062,46.26206653136857,44.86266913861351,52.0,38.0,-84.0,,0,0,
122,2.720276117324829,0.023156166076660156,43.1850418022322,44.848388449617055,23.0,42.0,-60.0,,0,0,
123,2.7476999759674072,0.027423858642578125,36.46459869244679,44.76471269636864,36.0,42.0,-55.0,,0,0,
124,2.769536018371582,0.021836042404174805,45.795844388395736,44.77284251854898,49.0,40.0,-32.0,,0,0,
125,2.79069185256958,0.021155834197998047,47.26828498658913,44.791760109559924,30.0,78.0,-10.0,,0,0,
126,2.810438871383667,0.019747018814086914,50.64055538786598,44.832855566777106,47.0,27.0,12.0,,0,0,
127,2.8300909996032715,0.019652128219604492,50.88507406553678,44.87488212138873,49.0,14.0,8.0,,0,0,
128,2.850710868835449,0.020619869232177734,48.49691279513447,44.90108113008654,105.0,47.0,32.0,,0,0,
129,2.8730697631835938,0.02235889434814453,44.724930688846236,44.89971028655342,110.0,46.0,32.0,,0,0,
130,2.8943488597869873,0.021279096603393555,46.99447625236692,44.9151108928754,77.0,43.0,17.0,,0,0,
131,2.914644956588745,0.020296096801757812,49.27055727845127,44.94543999394024,74.0,69.0,37.0,,0,0,
132,2.935486078262329,0.020841121673583984,47.982062369872104,44.96699915474913,54.0,75.0,14.0,,0,0,
133,2.958325147628784,0.022839069366455078,43.784621166252585,44.957870877244446,45.0,52.0,5.0,,0,0,
134,2.981873035430908,0.023547887802124023,42.46665384187026,44.938197705871055,58.0,24.0,-10.0,,0,0,
135,3.006688117980957,0.024815082550048828,40.298072673468994,44.89990138739592,80.0,14.0,-15.0,,0,0,
136,3.0267810821533203,0.02009296417236328,49.76866486306896,44.9322221557056,44.0,46.0,-38.0,,0,0,
137,3.0469329357147217,0.020151853561401367,49.62322681400329,44.963247597001605,25.0,63.0,-41.0,,0,0,
138,3.0662639141082764,0.019330978393554688,51.730439072520966,45.00591073229025,44.0,60.0,-46.0,,0,0,
139,3.0891008377075195,0.022836923599243164,43.78873518818187,44.99691246827492,40.0,62.0,-58.0,,0,0,
140,3.1097569465637207,0.020656108856201172,48.41182852789769,45.019595552218284,60.0,16.0,-33.0,,0,0,
141,3.130429983139038,0.020673036575317383,48.372187431523834,45.0417357230307,36.0,16.0,-73.0,,0,0,
142,3.15203595161438,0.021605968475341797,46.283507316104256,45.05024757959115,51.0,31.0,-75.0,,0,0,
143,3.1743829250335693,0.022346973419189453,44.74878907500267,45.0481253765211,44.0,60.0,-76.0,,0,0,
144,3.195734739303589,0.02135181427001953,46.8344276207066,45.06006028253156,50.0,55.0,-79.0,,0,0,
145,3.217705011367798,0.021970272064208984,45.51604991861096,45.06317374890829,79.0,10.0,-53.0,,0,0,
146,3.246285915374756,0.028580904006958008,34.98839643968401,44.97447353867645,107.0,0.0,-35.0,,0,0,
147,3.2666220664978027,0.020336151123046875,49.1735134121178,45.00061439846974,101.0,28.0,-33.0,,0,0,
148,3.289860963821411,0.0232388973236084,43.03130161791712,44.98670358035049,61.0,26.0,-23.0,,0,0,
149,3.310020923614502,0.02015995979309082,49.603273531463984,45.014821186475714,74.0,33.0,2.0,,0,0,
150,3.330165147781372,0.020144224166870117,49.64202104366146,45.04281119509441,78.0,43.0,12.0,,0,0,
151,3.3510820865631104,0.02091693878173828,47.80814298089636,45.06007197062323,82.0,30.0,26.0,,0,0,
152,3.3736541271209717,0.022572040557861328,44.30259627775313,45.05500394307304,78.0,-10.0,30.0,,0,0,
153,3.3980419635772705,0.024387836456298828,41.004047316453224,45.02593012092472,57.0,22.0,37.0,,0,0,
154,3.417757034301758,0.019715070724487305,50.72261793907438,45.058791030024736,44.0,49.0,39.0,,0,0,
155,3.440966844558716,0.023209810256958008,43.085229432248916,45.04547907664535,37.0,83.0,21.0,,0,0,
156,3.4633419513702393,0.022375106811523438,44.69252408149348,45.04319879192987,31.0,59.0,27.0,,0,0,
157,3.492292881011963,0.028950929641723633,34.54120514868771,44.956137800935544,29.0,26.0,15.0,,0,0,
158,3.511837959289551,0.01954507827758789,51.16377564712484,44.99068631058467,52.0,39.0,3.0,,0,0,
159,3.533451795578003,0.02161383628845215,46.26665931277922,44.99849133331413,66.0,70.0,-11.0,,0,0,
160,3.5563747882843018,0.022922992706298828,43.62432134462172,44.989633974204565,50.0,117.0,-8.0,,0,0,
161,3.576781749725342,0.02040696144104004,49.00288575000292,45.01253117061533,49.0,97.0,6.0,,0,0,
162,3.5980727672576904,0.021291017532348633,46.96816385034882,45.02410331280488,69.0,33.0,-22.0,,0,0,
163,3.6188738346099854,0.020801067352294922,48.07445613552484,45.04163655585603,69.0,71.0,-32.0,,0,0,
164,3.6405630111694336,0.021689176559448242,46.10594585087556,45.04797733120938,76.0,46.0,-31.0,,0,0,
165,3.6623780727386475,0.021815061569213867,45.839888960535085,45.05269437587489,41.0,13.0,-37.0,,0,0,
166,3.6809029579162598,0.018524885177612305,53.98144120258948,45.09763009182175,67.0,14.0,-36.0,,0,0,
167,3.702342987060547,0.02144002914428711,46.64172764272847,45.1065718610227,63.0,30.0,-40.0,,0,0,
168,3.7238197326660156,0.02147674560546875,46.56198934280639,45.114965830991714,63.0,35.0,-34.0,,0,0,
169,3.754251718521118,0.03043198585510254,32.86016248697519,45.015628325149386,52.0,27.0,-48.0,,0,0,
170,3.775329113006592,0.021077394485473633,47.44419433289972,45.02918683680417,77.0,14.0,-24.0,,0,0,
171,3.796599864959717,0.021270751953125,47.012912482066,45.04030081711399,60.0,30.0,-31.0,,0,0,
172,3.81630277633667,0.019702911376953125,50.7539206195547,45.069799248241395,52.0,77.0,-36.0,,0,0,
173,3.839841842651367,0.023539066314697266,42.48256862149296,45.05393896133635,56.0,72.0,-36.0,,0,0,
174,3.861207962036133,0.021366119384765625,46.80307088019996,45.063617839492,51.0,33.0,-33.0,,0,0,
175,3.88069486618042,0.01948690414428711,51.31651454718966,45.09501675204988,32.0,51.0,-38.0,,0,0,
176,3.900597095489502,0.01990222930908203,50.24562748574441,45.12129699412419,58.0,74.0,-19.0,,0,0,
177,3.92261004447937,0.022012948989868164,45.42780708119876,45.123017071020726,22.0,65.0,-33.0,,0,0,
178,3.944550037384033,0.021939992904663086,45.57886615302696,45.12555255048734,30.0,51.0,-20.0,,0,0,
179,3.9677138328552246,0.023163795471191406,43.170818065791096,45.11414067157887,48.0,51.0,-24.0,,0,0,
180,3.995407819747925,0.027693986892700195,36.10892154583882,45.051721406341045,51.0,34.0,-47.0,,0,0,
181,4.01521110534668,0.019803285598754883,50.49667112122416,45.07857625691942,63.0,33.0,-26.0,,0,0,
182,4.035851001739502,0.020639896392822266,48.44985560817835,45.095817442605224,77.0,-3.0,-20.0,,0,0,
183,4.056929111480713,0.021078109741210938,47.442584381503934,45.10801026375538,36.0,0.0,-39.0,,0,0,
184,4.0776519775390625,0.02072286605834961,48.25587335189489,45.124007888247334,52.0,7.0,-50.0,,0,0,
185,4.098219871520996,0.020567893981933594,48.61946492326239,45.14155067315602,47.0,24.0,-49.0,,0,0,
186,4.1208977699279785,0.022677898406982422,44.0957967997645,45.13579573784252,49.0,-2.0,-22.0,,0,0,
187,4.142598867416382,0.02170109748840332,46.080618758308525,45.14074521451951,46.0,10.0,-48.0,,0,0,
188,4.164648056030273,0.0220491886138916,45.353142807711855,45.14186972601014,69.0,19.0,-42.0,,0,0,
189,4.184513807296753,0.019865751266479492,50.33788989834739,45.166537548622955,67.0,33.0,-42.0,,0,0,
190,4.207233905792236,0.0227200984954834,44.01389369851514,45.16031298816564,43.0,38.0,-42.0,,0,0,
191,4.226836919784546,0.01960301399230957,51.01256370027122,45.18745426538382,27.0,-13.0,-38.0,,0,0,
192,4.251840829849243,0.025003910064697266,39.99374487480215,45.15691148457402,48.0,3.0,-32.0,,0,0,
193,4.274725914001465,0.02288508415222168,43.696583912404805,45.149093505117264,65.0,36.0,-43.0,,0,0,
194,4.294420003890991,0.019694089889526367,50.776654600922484,45.174901342724944,73.0,40.0,-40.0,,0,0,
