Index,Time,Difference,Hz,AveHz,0x6103 Linear-Acceleration-X,0x6103 Linear-Acceleration-Y,0x6103 Linear-Acceleration-Z,0x6103 Range,0x6103 Smoothed Range,0x6103 Velocity,
0,1.1920928955078125e-06,1.1920928955078125e-06,838860.8,0.0,-5.0,2.0,-13.0,358,327.5,12792627.2,
1,0.029319047927856445,0.029317855834960938,34.1089063821482,34.107519536808894,-3.0,16.0,-19.0,368,347.75,6396658.952677119,
2,0.05760526657104492,0.028286218643188477,35.3529049822574,34.71904773729999,0.0,11.0,-6.0,344,345.875,3198296.3329901383,
3,0.08617401123046875,0.028568744659423828,35.003288101079896,34.8132802124834,2.0,4.0,-3.0,410,377.9375,1599709.3129574396,
4,0.11485123634338379,0.02867722511291504,34.870877362176905,34.82766165477528,1.0,9.0,-6.0,368,372.96875,799768.0241427731,
5,0.14389824867248535,0.029047012329101562,34.42694858493663,34.74677451690241,10.0,6.0,-2.0,354,363.484375,399720.75302614394,
6,0.1706221103668213,0.026723861694335938,37.41974163157519,35.16543071176749,16.0,1.0,2.0,377,370.2421875,199986.8143119443,
7,0.19730830192565918,0.02668619155883789,37.472563209148575,35.47747323190397,18.0,-16.0,1.0,372,371.12109375,100009.87459097616,
8,0.22461795806884766,0.027309656143188477,36.617084988432495,35.616030297755266,18.0,-17.0,2.0,377,374.060546875,50058.7543979369,
9,0.2512331008911133,0.026615142822265625,37.572595671492046,35.82330500271412,8.0,4.0,-1.0,358,366.0302734375,24878.518090469093,
10,0.2955751419067383,0.044342041015625,22.55196145905024,33.83234440992086,0.0,15.0,-4.0,363,364.51513671875,12422.174392791325,
11,0.32031702995300293,0.02474188804626465,40.41728740062636,34.34097775448881,0.0,10.0,1.0,335,349.757568359375,5912.856755538038,
12,0.3482930660247803,0.027976036071777344,35.744878131924324,34.45374361586121,7.0,-4.0,7.0,349,349.3787841796875,2949.6585805984037,
13,0.3737201690673828,0.02542710304260254,39.32811371883468,34.785385098271384,14.0,-11.0,5.0,396,372.68939208984375,1933.210409672098,
14,0.4003920555114746,0.026671886444091797,37.49266112451953,34.96572873334342,12.0,-12.0,13.0,330,351.3446960449219,566.4704770269849,
15,0.42690205574035645,0.026510000228881836,37.721614159419374,35.13686523243884,10.0,-11.0,6.0,283,317.17234802246094,-361.28282499884216,
16,0.45232725143432617,0.025425195693969727,39.33106403728397,35.37262004282105,9.0,-11.0,10.0,311,314.08617401123047,-241.33266633237463,
17,0.4819810390472412,0.02965378761291504,33.72250496474429,35.27109704067373,13.0,-4.0,9.0,339,326.54308700561523,89.37282198307662,
18,0.5103130340576172,0.028331995010375977,35.295784840911196,35.27246767905932,18.0,0.0,8.0,349,337.7715435028076,242.84500330175516,
19,0.5481569766998291,0.037843942642211914,26.42430809744911,34.6616038974624,21.0,-4.0,17.0,382,359.8857717514038,413.5990919399867,
20,0.5778450965881348,0.029688119888305664,33.683507199588824,34.611351931666924,23.0,-21.0,16.0,321,340.4428858757019,-120.65274721750114,
21,0.6075031757354736,0.029658079147338867,33.71762530648338,34.567720530145955,21.0,-19.0,27.0,349,344.72144293785095,11.805018328224392,
22,0.6362512111663818,0.028748035430908203,34.784985652440746,34.577537321570496,19.0,-14.0,28.0,372,358.3607214689255,243.12356317064737,
23,0.6644470691680908,0.028195858001708984,35.46620216130287,34.615247876398556,19.0,-13.0,27.0,349,353.68036073446274,38.56447158718396,
24,0.6898210048675537,0.02537393569946289,39.41051998571778,34.79163410602149,13.0,-13.0,27.0,330,341.84018036723137,-214.03159670504556,
25,0.7175641059875488,0.027743101119995117,36.044997121078005,34.840092740694864,10.0,-10.0,27.0,307,324.4200901836157,-420.9693486111961,
26,0.7441232204437256,0.026559114456176758,37.6518577699579,34.94044976112428,5.0,0.0,21.0,382,353.21004509180784,331.51296939777814,
27,0.7738950252532959,0.029771804809570312,33.58882695880582,34.88845272155987,5.0,-2.0,16.0,377,365.1050225459039,365.5256543911539,
28,0.8104040622711182,0.036509037017822266,27.39047867824724,34.55066590057724,9.0,-11.0,21.0,358,361.55251127295196,134.11033505756512,
29,0.8386812210083008,0.028277158737182617,35.36423193342495,34.57809627015957,21.0,-31.0,33.0,349,355.276255636476,-43.92231247211855,
30,0.8672580718994141,0.02857685089111328,34.99335891873853,34.59177950837158,18.0,-28.0,31.0,311,333.138127818238,-409.3048825023152,
31,0.8948931694030762,0.02763509750366211,36.18586834613062,34.6410063903807,10.0,-10.0,30.0,382,357.569063909119,237.3748772275179,
32,0.9226870536804199,0.02779388427734375,35.97913807301674,34.68131461513218,9.0,-3.0,19.0,349,353.2845319545595,41.61055522808472,
33,0.9518799781799316,0.02919292449951172,34.2548756982784,34.66823628657319,13.0,-7.0,28.0,368,360.64226597727975,146.8244097986804,
34,0.9788973331451416,0.02701735496520996,37.01324579285027,34.732958042453674,14.0,-8.0,14.0,372,366.3211329886399,178.5088551575309,
35,1.0098319053649902,0.030934572219848633,32.326291532112,34.65923369429461,13.0,-17.0,19.0,321,343.66056649431994,-277.01161181033234,
36,1.059338092803955,0.049506187438964844,20.199495290015605,33.983484823727835,7.0,-22.0,17.0,377,360.33028324715997,29.854126612277042,
37,1.0908763408660889,0.03153824806213379,31.707531693894058,33.917684905169246,3.0,-13.0,15.0,,360.33028324715997,29.854126612277042,
38,1.1202161312103271,0.02933979034423828,34.083406468389406,33.922025349646816,0.0,2.0,8.0,396,378.16514162358,318.86342698097997,
39,1.1515252590179443,0.03130912780761719,31.939567468778556,33.868123772864855,-4.0,6.0,13.0,307,342.58257081179,-408.8142470873885,
40,1.1776299476623535,0.02610468864440918,38.30729466348832,33.9665274982194,-4.0,2.0,5.0,372,357.291285405895,77.31840849507148,
41,1.204700231552124,0.027070283889770508,36.94087598312504,34.03336276210057,-4.0,-4.0,11.0,363,360.1456427029475,91.38043370850798,
42,1.2327110767364502,0.028010845184326172,35.700457926901926,34.071244099787926,-2.0,-4.0,2.0,307,333.57282135147375,-428.6407284744309,
43,1.2609820365905762,0.028270959854125977,35.37198613559122,34.10040647070813,3.0,-2.0,-5.0,377,355.2864106757369,169.70602602866293,
44,1.299833059310913,0.038851022720336914,25.73934815560315,33.85050078917514,8.0,-12.0,3.0,344,349.64320533786844,12.226799561854563,
45,1.328599214553833,0.028766155242919922,34.76307457688929,33.870259373223995,8.0,-15.0,-5.0,354,351.82160266893425,43.977294219895946,
46,1.3567192554473877,0.028120040893554688,35.56182595129892,33.90531962696378,5.0,-10.0,-1.0,,351.82160266893425,43.977294219895946,
47,1.3800792694091797,0.023360013961791992,42.808193592504516,34.05601478248491,-6.0,9.0,-6.0,316,333.9108013344671,-361.37587835143046,
48,1.4052810668945312,0.025201797485351562,39.67970937712859,34.1568680677333,-7.0,19.0,0.0,349,341.45540066723356,-31.004184730189962,
49,1.431847333908081,0.026566267013549805,37.64172058836727,34.2215254654695,-5.0,8.0,-9.0,344,342.7277003336168,8.443681908240034,
50,1.4600110054016113,0.028163671493530273,35.50673427751488,34.246317195565446,-4.0,-1.0,-2.0,372,357.3638501668084,264.0627824406341,
51,1.4892761707305908,0.029265165328979492,34.17031780817454,34.24482376225831,-5.0,0.0,-8.0,363,360.18192508340417,180.17864897397837,
52,1.5165722370147705,0.027296066284179688,36.6353154915799,34.28784909207958,-15.0,3.0,-21.0,316,338.0909625417021,-314.5653666269757,
53,1.55098295211792,0.034410715103149414,29.060715448731717,34.17187785824899,-17.0,7.0,-16.0,283,310.54548127085104,-557.5283798687733,
54,1.5799920558929443,0.029009103775024414,34.471937077248036,34.17738703089966,-20.0,19.0,-19.0,363,336.7727406354255,173.2880273277512,
55,1.6078860759735107,0.027894020080566406,35.84997777701802,34.20640356419512,-17.0,24.0,-11.0,335,335.88637031771276,70.75583556777016,
56,1.637963056564331,0.030076980590820312,33.24801826368191,34.18880528200765,-14.0,15.0,-7.0,278,306.9431851588564,-445.77385660150645,
57,1.6722331047058105,0.03427004814147949,29.179999860858917,34.086156911734975,-9.0,7.0,-7.0,297,301.9715925794282,-295.42246368873435,
58,1.6996550559997559,0.027421951293945312,36.467135007303334,34.1245712153539,-7.0,-2.0,-7.0,330,315.98579628971413,107.8176975170569,
59,1.7267441749572754,0.02708911895751953,36.9151909875022,34.168350387781,-4.0,3.0,-10.0,288,301.99289814485707,-204.36640498450345,
60,1.753690242767334,0.026946067810058594,37.11116616528048,34.2135677879576,-6.0,12.0,-6.0,307,304.4964490724285,-55.72835525407885,
61,1.7829220294952393,0.029231786727905273,34.20933551917916,34.2134983980593,-10.0,20.0,-10.0,354,329.24822453621425,395.5067181409771,
62,1.8107950687408447,0.02787303924560547,35.87696308208164,34.23910362375371,-11.0,18.0,-6.0,316,322.6241122681071,78.92684342326685,
63,1.8378949165344238,0.0270998477935791,36.90057625478379,34.27834716404473,-18.0,22.0,-6.0,335,328.8120561340536,153.63276895447302,
64,1.8667230606079102,0.028828144073486328,34.68832393271251,34.28467850992209,-19.0,26.0,-3.0,246,287.4060280670268,-641.3364727007691,
65,1.8961663246154785,0.02944326400756836,33.963625763194976,34.27969327172883,-19.0,23.0,2.0,278,282.7030140335134,-400.53394064703616,
66,1.9252421855926514,0.02907586097717285,34.392790665256285,34.28140131870374,-16.0,15.0,8.0,325,303.8515070167567,163.41087570564656,
67,1.953207015991211,0.02796483039855957,35.75920131636159,34.302559560487204,-14.0,2.0,10.0,311,307.42575350837836,145.6115377769219,
68,1.982375144958496,0.029168128967285156,34.283995422592774,34.302286412808954,-19.0,15.0,1.0,311,309.2128767541892,103.44063147795505,
69,2.0082039833068848,0.025828838348388672,38.7164140528366,34.359059425018444,-24.0,25.0,7.0,354,331.6064383770946,485.2195176940359,
70,2.0402450561523438,0.032041072845458984,31.209941215864276,34.3096040296314,-20.0,28.0,3.0,382,356.8032191885473,635.8047828242458,
71,2.0684502124786377,0.028205156326293945,35.454510105578144,34.325215841149124,-13.0,22.0,6.0,354,355.4016095942736,293.05570064999716,
72,2.09519624710083,0.026746034622192383,37.388720014975796,34.364322721381356,-7.0,16.0,15.0,363,359.2008047971368,217.55137318604403,
73,2.12308931350708,0.02789306640625,35.85120350109409,34.383857304341596,-1.0,9.0,18.0,293,326.1004023985684,-484.56894458656745,
74,2.1518020629882812,0.028712749481201172,34.82773395333389,34.38978020926036,-4.0,5.0,25.0,297,311.5502011992842,-495.65974046135915,
75,2.181593179702759,0.02979111671447754,33.567053212007714,34.378545320818574,-4.0,6.0,25.0,325,318.2751005996421,-134.96234222207318,
76,2.2070820331573486,0.025488853454589844,39.23283570920792,34.43460589966289,-7.0,9.0,27.0,344,331.13755029982104,184.83401684149922,
77,2.237229108810425,0.030147075653076172,33.17071318982016,34.41757471184625,-12.0,27.0,18.0,377,354.0687751499105,472.7395497175466,
78,2.262627124786377,0.02539801597595215,39.3731542238118,34.47320114990855,-13.0,32.0,26.0,330,342.03438757495525,-0.5461241301454436,
79,2.2927539348602295,0.03012681007385254,33.193026329326294,34.45637963971741,-13.0,13.0,21.0,354,348.0171937874776,99.0206600026829,
80,2.3219010829925537,0.02914714813232422,34.30867388672578,34.45452546879947,-12.0,5.0,16.0,349,348.5085968937388,57.94002446116128,
81,2.347771167755127,0.025870084762573242,38.65468587280083,34.50080702603139,-10.0,6.0,22.0,358,353.25429844686937,120.6918136217433,
82,2.3760383129119873,0.02826714515686035,35.37675964271556,34.51122801951107,-7.0,12.0,17.0,372,362.6271492234347,226.13645135566716,
83,2.402377128601074,0.026338815689086914,37.966779213020374,34.54911346426764,-4.0,6.0,31.0,372,367.31357461171734,202.03246468544404,
84,2.4313552379608154,0.02897810935974121,34.50880758250167,34.548633078583386,-3.0,2.0,29.0,354,360.65678730585864,-13.842663785036748,
85,2.4611611366271973,0.029805898666381836,33.550405951285846,34.53654404623216,-60.0,71.0,-27.0,316,338.3283936529293,-381.4846675404649,
86,2.488295316696167,0.027134180068969727,36.8538867752111,34.561814035074605,-37.0,15.0,-54.0,354,346.16419682646466,-46.35243229507685,
87,2.5156190395355225,0.02732372283935547,36.59823391853688,34.58393287405849,58.0,-124.0,-26.0,377,361.5820984132323,258.95776825521307,
88,2.5550363063812256,0.039417266845703125,25.369592567502178,34.44178064328058,241.0,-175.0,92.0,410,385.79104920661615,436.56449318503496,
89,2.5854010581970215,0.0303647518157959,32.93292189794204,34.42405955463863,33.0,58.0,-70.0,471,428.3955246033081,919.8271769635421,
90,2.6149539947509766,0.029552936553955078,33.837584910531326,34.4174315038268,25.0,171.0,-64.0,494,461.19776230165405,1014.8878401683774,
91,2.6412861347198486,0.02633213996887207,37.97640454524877,34.45291246707431,28.0,38.0,-82.0,424,442.598881150827,154.28460274778416,
92,2.6714272499084473,0.030141115188598633,33.17727276322763,34.438519710073685,99.0,-46.0,-67.0,447,444.79944057541354,113.64658150449111,
93,2.6982462406158447,0.02681899070739746,37.287010943486806,34.466832048202455,72.0,54.0,-110.0,433,438.89972028770677,-53.16817671337118,
94,2.7254159450531006,0.02716970443725586,36.805700345741414,34.49014825447811,-11.0,44.0,-200.0,405,421.94986014385336,-338.5098250351327,
95,2.7555079460144043,0.03009200096130371,33.23142257259438,34.47640212303107,-22.0,-54.0,-195.0,372,396.9749300719267,-584.2311399881615,
96,2.7908060550689697,0.03529810905456543,28.33012948240809,34.398664079732164,29.0,-44.0,-90.0,415,405.98746503596334,-164.4524287461364,
97,2.8206851482391357,0.029879093170166016,33.46821787076491,34.38880800310309,-28.0,-26.0,-125.0,405,405.4937325179817,-90.48838811391366,
98,2.8464651107788086,0.02577996253967285,38.789815868083494,34.428667201610864,-16.0,-51.0,-109.0,461,433.24686625899085,493.0252797310632,
99,2.8744871616363525,0.028022050857543945,35.68618175320974,34.44092613154776,-4.0,-34.0,-83.0,438,435.6234331294954,288.9179385102732,
100,2.903986930847168,0.02949976921081543,33.89857028553879,34.43541668103424,-35.0,-59.0,-54.0,419,427.3117165647477,3.5813151733479174,
101,2.9321231842041016,0.028136253356933594,35.541334779513946,34.44602891996693,4.0,-5.0,-19.0,471,449.15585828237386,389.97563446532274,
102,2.9602320194244385,0.028108835220336914,35.57600278208945,34.45675856848275,29.0,81.0,-26.0,419,434.0779291411869,-73.21840730484553,
103,2.9888761043548584,0.028644084930419922,34.911221720963525,34.461113945113595,49.0,-78.0,-58.0,527,480.53896457059346,774.3965509783538,
104,3.017444133758545,0.028568029403686523,35.00416447593534,34.46625534387509,66.0,-37.0,-69.0,429,454.7694822852967,-63.821322697938,
105,3.050879955291748,0.033435821533203125,29.90804335424986,34.41630006381523,66.0,16.0,-59.0,485,469.88474114264835,194.12324725922213,
106,3.0797581672668457,0.028878211975097656,34.62818268881477,34.41828684038217,29.0,-5.0,-40.0,504,486.9423705713242,392.3989776767563,
107,3.1104161739349365,0.03065800666809082,32.617906663867046,34.40054128339876,14.0,38.0,-42.0,593,539.9711852856622,1061.0439532622656,
108,3.1394460201263428,0.02902984619140625,34.4473061760841,34.40097370925769,-29.0,34.0,-48.0,560,549.9855926428311,703.0066548333464,
109,3.167922019958496,0.02847599983215332,35.11729196145248,34.40741259200188,-27.0,13.0,-37.0,546,547.9927963214155,316.5125222972442,
110,3.1986911296844482,0.03076910972595215,32.500127852466,34.38906588359831,-66.0,32.0,4.0,602,574.9963981607077,597.0665172756629,
111,3.2257511615753174,0.02706003189086914,36.95487145147932,34.410589794468954,-31.0,2.0,44.0,574,574.4981990803539,289.32781715197046,
112,3.2540321350097656,0.028280973434448242,35.35946180628736,34.418836493654936,-44.0,-13.0,70.0,588,581.249099540177,264.01801205956707,
113,3.286102056503296,0.03206992149353027,31.18186616707927,34.38724606144522,-73.0,-25.0,35.0,654,617.6245497700885,699.1362164479604,
114,3.318963050842285,0.03286099433898926,30.431215491659955,34.34807747289297,-64.0,70.0,67.0,621,619.3122748850442,375.24787155593185,
115,3.3504140377044678,0.03145098686218262,31.795504681044612,34.324115976660636,-14.0,-24.0,112.0,593,606.1561374425221,-21.529079041122856,
116,3.3794329166412354,0.029018878936767578,34.46032502423714,34.325285591196334,-19.0,-38.0,98.0,635,620.578068721261,237.72768015071676,
117,3.407102108001709,0.027669191360473633,36.14128027711477,34.340033345411356,-38.0,9.0,66.0,668,644.2890343606305,547.3361674821024,
118,3.4366259574890137,0.029523849487304688,33.87092189417921,34.336003236796024,-8.0,-147.0,-1.0,662,653.1445171803152,423.63976720144547,
119,3.462799072265625,0.026173114776611328,38.20714532966532,34.36526275899144,82.0,-93.0,40.0,667,660.0722585901576,344.164495026817,
120,3.487727165222168,0.02492809295654297,40.11538314396113,34.40636102404415,80.0,-25.0,31.0,681,670.5361292950788,381.9633387618006,
121,3.520315170288086,0.03258800506591797,30.686137367943576,34.371922440710875,128.0,-125.0,39.0,714,692.2680646475394,524.4162461293379,
122,3.5544240474700928,0.034108877182006836,29.31788093357472,34.323422971109785,174.0,-114.0,89.0,761,726.6340323237697,765.9767973140677,
123,3.5812978744506836,0.02687382698059082,37.210926479590476,34.34509061016499,145.0,-81.0,63.0,770,748.3170161618848,786.4103573861585,
124,3.607757091522217,0.026459217071533203,37.79401322784696,34.370384938438534,122.0,6.0,53.0,822,785.1585080809424,1089.3990951543192,
125,3.6354081630706787,0.027651071548461914,36.164963742811075,34.38403458235558,16.0,34.0,2.0,803,794.0792540404711,706.0087746697523,
126,3.660844087600708,0.025435924530029297,39.31447425154191,34.4182917887059,86.0,44.0,61.0,780,787.0396270202356,214.6247697211211,
127,3.6887311935424805,0.02788710594177246,35.85886617592996,34.42918264749872,6.0,82.0,59.0,836,811.5198135101177,546.228250511807,
128,3.7166762351989746,0.02794504165649414,35.784523504820406,34.439373219482874,-9.0,91.0,44.0,798,804.7599067550589,152.1641041725044,
129,3.7444651126861572,0.027788877487182617,35.985620522500106,34.45084841702787,-29.0,44.0,45.0,794,799.3799533775294,-20.71842825000624,
130,3.7725791931152344,0.02811408042907715,35.569365411850505,34.45918384887543,-49.0,16.0,64.0,831,815.1899766887648,270.81703403859916,
131,3.8068432807922363,0.03426408767700195,29.185075914663845,34.411713416460316,-78.0,-10.0,36.0,808,811.5949883443824,82.94851314773376,
132,3.8344500064849854,0.027606725692749023,36.22305705970239,34.42475446980818,-56.0,-18.0,44.0,855,833.2974941721911,434.5398100434869,
133,3.8628170490264893,0.028367042541503906,35.2521768364431,34.43083074139346,-136.0,11.0,32.0,892,862.6487470860956,734.6176840678058,
134,3.8895010948181152,0.026684045791625977,37.47557652272585,34.451719316527466,-95.0,43.0,25.0,874,868.3243735430478,473.6575288348641,
135,3.916084051132202,0.026582956314086914,37.61808837905953,34.47321309688676,-131.0,93.0,52.0,831,849.6621867715239,-114.18913124141918,
136,3.947551965713501,0.03146791458129883,31.778400739472367,34.45173139738989,-36.0,35.0,50.0,813,831.331093385762,-348.36098142342706,
137,3.9785261154174805,0.030974149703979492,32.28498633722049,34.434862566089784,-28.0,-5.0,39.0,869,850.165546692881,129.85454313296387,
138,4.006629228591919,0.028103113174438477,35.58324637533617,34.442917506619004,95.0,9.0,107.0,892,871.0827733464405,437.0786863176602,
139,4.038990259170532,0.03236103057861328,30.90136445348186,34.414542021833384,110.0,15.0,42.0,878,874.5413866732202,271.97727861607535,
140,4.0653040409088135,0.02631378173828125,38.00289939112786,34.43776863702979,-30.0,71.0,-5.0,850,862.2706933366101,-97.17232285725217,
141,4.093343019485474,0.028038978576660156,35.66463725723615,34.44617256086285,-39.0,78.0,-11.0,859,860.635346668305,-77.74818428609042,
142,4.121254205703735,0.02791118621826172,35.82792906686712,34.45553050415448,-156.0,165.0,7.0,915,887.8176733341525,448.0691436851509,
143,4.148375034332275,0.02712082862854004,36.872029748665966,34.471328849614814,-67.0,7.0,-10.0,836,861.9088366670762,-253.62112632830573,
144,4.175229072570801,0.02685403823852539,37.23834721309729,34.489125625707366,58.0,-81.0,0.0,961,911.4544183335381,795.6872233211346,
145,4.203798055648804,0.02856898307800293,35.00299598587964,34.49261788519027,-105.0,-1.0,-38.0,841,876.2272091667691,-218.68531886851264,
