Index,Time,Difference,Hz,AveHz,0x6103 Linear-Acceleration-X,0x6103 Linear-Acceleration-Y,0x6103 Linear-Acceleration-Z,0x6103 Range,0x6103 Smoothed Range,0x6103 Velocity,
0,9.5367431640625e-07,9.5367431640625e-07,1048576.0,0.0,0.0,-2.0,20.0,1341,1329.0,6291456.0,
1,0.028728008270263672,0.028727054595947266,34.81039090380944,34.809235314621475,-2.0,16.0,35.0,1270,1299.5,3145214.5467341687,
2,0.05624794960021973,0.027519941329956055,36.337286769993156,35.556851657970256,9.0,19.0,33.0,1289,1294.25,1572511.887989313,
3,0.08501982688903809,0.02877187728881836,34.75616102355028,35.2858869486454,15.0,13.0,43.0,1308,1301.125,786375.418298175,
4,0.11267399787902832,0.027654170989990234,36.16091042331235,35.500648555086975,14.0,2.0,28.0,1327,1314.0625,393421.6250383883,
5,0.14632606506347656,0.03365206718444824,29.715856518381546,34.170262132252304,0.0,12.0,23.0,1308,1311.03125,196665.77442415847,
6,0.17302179336547852,0.026695728302001953,37.45917656515138,34.67771246207142,-10.0,11.0,20.0,1294,1302.515625,98173.39306186042,
7,0.20098304748535156,0.027961254119873047,35.76377496205597,34.82880813870726,-5.0,1.0,23.0,1294,1298.2578125,49010.558806889894,
8,0.22828888893127441,0.02730584144592285,36.62220049070541,35.04331742754407,-1.0,-3.0,18.0,1280,1289.12890625,24338.11908597077,
9,0.2530360221862793,0.024747133255004883,40.40872086861855,35.56805834299121,2.0,7.0,3.0,1252,1270.564453125,11793.976640782046,
10,0.28164100646972656,0.028604984283447266,34.958942472786674,35.506193239921174,0.0,8.0,4.0,1299,1284.7822265625,6145.507482237362,
11,0.30672311782836914,0.025082111358642578,39.86905191916504,35.862963567536475,-7.0,15.0,-7.0,1294,1289.39111328125,3164.629713058378,
12,0.33303284645080566,0.026309728622436523,38.00875388532954,36.03248186443554,-4.0,19.0,2.0,1266,1277.695556640625,1360.0480895764654,
13,0.36010193824768066,0.027069091796875,36.94250281848929,36.100888718512,-2.0,23.0,-11.0,1280,1278.8477783203125,701.3070211129226,
14,0.3857097625732422,0.025607824325561523,39.05056467455566,36.296721935684864,2.0,13.0,-3.0,1238,1258.4238891601562,-48.12869172085766,
15,0.41115593910217285,0.025446176528930664,39.298634860253536,36.48250839512372,1.0,-16.0,-22.0,1252,1255.2119445800781,-87.17686448235914,
16,0.4372599124908447,0.026103973388671875,38.30834429343855,36.59150894683263,-12.0,0.0,-22.0,1256,1255.605972290039,-36.0411576540102,
17,0.46105289459228516,0.02379298210144043,42.02919985971241,36.872125084548735,-20.0,8.0,-20.0,1233,1244.3029861450195,-255.5483106772982,
18,0.48701000213623047,0.025957107543945312,38.52509368800059,36.96022652726728,-18.0,1.0,-21.0,1256,1250.1514930725098,-15.117016680408227,
19,0.5134217739105225,0.026411771774291992,37.86190523474666,37.006611260922604,-7.0,2.0,-25.0,1219,1234.5757465362549,-302.4222279982621,
20,0.5412578582763672,0.027836084365844727,35.924592944078526,36.95096467271606,0.0,8.0,-22.0,1256,1245.2878732681274,41.20328220482088,
21,0.5656728744506836,0.024415016174316406,40.95840006249756,37.123929657035056,-5.0,15.0,-25.0,1266,1255.6439366340637,232.68553430970704,
22,0.592444896697998,0.026772022247314453,37.35242675215959,37.13425522376407,-8.0,9.0,-22.0,1252,1253.8219683170319,82.3152981015095,
23,0.6169841289520264,0.02453923225402832,40.751071168326455,37.2781063899755,-12.0,3.0,-23.0,1242,1247.910984158516,-79.28181900851172,
24,0.6426079273223877,0.025623798370361328,39.02622029514115,37.34781190764789,-17.0,12.0,-22.0,1256,1251.955492079258,39.28001904590511,
25,0.6669368743896484,0.024328947067260742,41.10329958938879,37.48480697349192,-8.0,-3.0,-21.0,1256,1253.977746039629,61.2006647124315,
26,0.6962878704071045,0.029350996017456055,34.070394047454656,37.34087739428573,-3.0,-17.0,-16.0,1289,1271.4888730198145,328.90583057118323,
27,0.7246298789978027,0.028342008590698242,35.28331440588854,37.2604011821073,-15.0,-10.0,-18.0,1275,1273.2444365099072,195.42396457581242,
28,0.7511129379272461,0.02648305892944336,37.759988476566015,37.278015843087665,-3.0,4.0,0.0,1266,1269.6222182549536,29.324522504578283,
29,0.8237087726593018,0.07259583473205566,13.774894987996282,35.20661787584825,1.0,1.0,0.0,1266,1267.8111091274768,2.1883422308918163,
30,0.8508069515228271,0.02709817886352539,36.9028488975699,35.260642788947756,-3.0,11.0,6.0,1289,1278.4055545637384,196.57678065940124,
31,0.8769080638885498,0.026101112365722656,38.31254338850524,35.3514824148543,-2.0,-4.0,11.0,1294,1286.2027772818692,247.6541071788131,
32,0.9022858142852783,0.025377750396728516,39.40459593017794,35.46548055324127,-10.0,-11.0,18.0,1280,1283.1013886409346,62.72257048017071,
33,0.9295938014984131,0.027307987213134766,36.61932284482006,35.49937612192257,-20.0,1.0,10.0,1284,1283.5506943204673,39.587920107494945,
34,0.9574520587921143,0.027858257293701172,35.89599986306763,35.5109163824799,-10.0,1.0,11.0,1327,1305.2753471602337,409.7080277344698,
35,0.9867699146270752,0.029317855834960938,34.1089063821482,35.46926135585251,0.0,-1.0,25.0,,1305.2753471602337,409.7080277344698,
36,1.0089519023895264,0.022181987762451172,45.081622562823796,35.68059083365648,3.0,-10.0,24.0,1266,1285.6376735801168,-237.79508030814677,
37,1.0395219326019287,0.030570030212402344,32.71177663391047,35.59328460476905,-3.0,12.0,37.0,1331,1308.3188367900584,252.07303220636504,
38,1.0641777515411377,0.024655818939208984,40.55837700891562,35.708320292327635,-8.0,25.0,25.0,1322,1315.1594183950292,264.7579599505118,
39,1.0917818546295166,0.027604103088378906,36.22649853169805,35.721421669198,3.0,0.0,37.0,1284,1299.5797091975146,-149.82017620876678,
40,1.1190338134765625,0.0272519588470459,36.694609940246536,35.74512183481735,5.0,0.0,29.0,1317,1308.2898545987573,84.8976059063331,
41,1.145540714263916,0.026506900787353516,37.72602493299034,35.79095835659159,3.0,-7.0,38.0,1289,1298.6449272993787,-139.48358093345252,
42,1.17032790184021,0.024787187576293945,40.34342326744577,35.88737817321085,2.0,-13.0,39.0,1299,1298.8224636496893,-66.16057840375572,
43,1.1979598999023438,0.02763199806213379,36.18992726300077,35.89435673389845,-6.0,-8.0,24.0,1345,1321.9112318248447,384.71013122370147,
44,1.2245047092437744,0.026544809341430664,37.67214852205466,35.93289569884413,-7.0,-3.0,22.0,1331,1326.4556159124222,277.9534217560925,
45,1.2488617897033691,0.024357080459594727,41.05582365090397,36.03281033258968,-3.0,18.0,24.0,1308,1317.227807956211,-50.450917189259656,
46,1.2786760330200195,0.02981424331665039,33.541015593762495,35.97471041304784,16.0,3.0,29.0,1270,1293.6139039781056,-421.2426193742541,
47,1.3052978515625,0.02662181854248047,37.5631739208311,36.007107453474234,23.0,-9.0,35.0,1322,1307.8069519890528,55.94665576383113,
48,1.3316726684570312,0.02637481689453125,37.9149551634365,36.04489386691111,8.0,2.0,23.0,1233,1270.4034759945264,-681.1022297626553,
49,1.3583307266235352,0.026658058166503906,37.51210961256395,36.07368885912015,1.0,5.0,2.0,1313,1291.701737997263,58.920254520554636,
50,1.385990858078003,0.027660131454467773,36.15311813127613,36.075274024055666,2.0,0.0,6.0,1289,1290.3508689986315,5.041064016574936,
51,1.4126639366149902,0.026673078536987305,37.49098547486034,36.10200464393934,5.0,-8.0,-4.0,1242,1266.1754344993158,-450.659899822855,
52,1.4401919841766357,0.027528047561645508,36.326586466425894,36.10629733488528,6.0,-8.0,5.0,1266,1266.087717249658,-226.92318403857254,
53,1.468003749847412,0.027811765670776367,35.95600552074136,36.10345001196962,7.0,1.0,-3.0,1280,1273.043858624829,11.595936825066659,
54,1.4973340034484863,0.02933025360107422,34.094488701024225,36.06409784031716,9.0,-1.0,-11.0,1228,1250.5219293124146,-378.13886382115595,
55,1.524669885635376,0.02733588218688965,36.581954559330164,36.073382519180434,1.0,12.0,-21.0,1256,1253.2609646562073,-138.9697986690662,
56,1.5511138439178467,0.026443958282470703,37.81582126692753,36.10308825466584,5.0,22.0,-19.0,1233,1243.1304823281037,-261.03115386820093,
57,1.5798919200897217,0.028778076171875,34.748674443266175,36.078417311459496,16.0,-1.0,-3.0,1205,1224.0652411640517,-461.7615061300994,
58,1.6072030067443848,0.027311086654663086,36.61516704350028,36.08753826157104,14.0,-83.0,-10.0,1177,1200.5326205820259,-661.7061698561445,
59,1.6342499256134033,0.027046918869018555,36.972788096224534,36.102189191077855,1.0,-98.0,-3.0,1223,1211.7663102910128,-123.1826703535157,
60,1.6615910530090332,0.027341127395629883,36.574936560949446,36.10996814850676,-11.0,12.0,-40.0,1261,1236.3831551455064,388.58843426516114,
61,1.69022798538208,0.028636932373046875,34.919941388037834,36.08980594781171,3.0,64.0,-27.0,1200,1218.1915775727532,-123.33019416566214,
62,1.716844081878662,0.02661609649658203,37.57124941775054,36.11277264744758,9.0,28.0,-20.0,1195,1206.5957887863765,-279.4992334270883,
63,1.7443137168884277,0.027469635009765625,36.40383280099986,36.11735629321414,22.0,-10.0,-10.0,1200,1203.2978943931882,-199.77761475603404,
64,1.7774639129638672,0.03315019607543945,30.165734094733967,36.006356884783074,32.0,76.0,7.0,1177,1190.1489471965942,-298.2126297570933,
65,1.808811902999878,0.03134799003601074,31.899971859479933,35.93519032697586,-35.0,55.0,-102.0,1172,1181.0744735982971,-293.8440410911825,
66,1.8381178379058838,0.02930593490600586,34.122781041019216,35.90629427501337,-63.0,-81.0,-142.0,1214,1197.5372367991486,133.95561147080997,
67,1.8686378002166748,0.030519962310791016,32.765440199984376,35.854995543936404,-12.0,-13.0,-123.0,1223,1210.2686183995743,275.5524669813701,
68,1.8939447402954102,0.02530694007873535,39.51485232465024,35.90389864774704,-1.0,18.0,-116.0,1209,1209.6343091997871,125.24391631180711,
69,1.9191880226135254,0.025243282318115234,39.614499707210186,35.95270457452975,-8.0,62.0,-153.0,,1209.6343091997871,125.24391631180711,
70,1.948049783706665,0.02886176109313965,34.64792036677543,35.933373256409816,-10.0,145.0,-134.0,1191,1200.3171545998935,-98.78805715512233,
71,1.977997064590454,0.029947280883789062,33.39201324756385,35.894896545107166,-28.0,151.0,-144.0,1242,1221.1585772999467,298.57450287156723,
72,2.008359909057617,0.030362844467163086,32.93499069500828,35.85014801146104,-14.0,-49.0,-125.0,1242,1231.5792886499735,320.8902671100327,
73,2.0412049293518066,0.03284502029418945,30.44601559210813,35.763190138474464,58.0,-88.0,-63.0,1270,1250.7896443249867,452.88452776071466,
74,2.0669360160827637,0.02573108673095703,38.86349653459842,35.80178555320936,0.0,-12.0,-91.0,1299,1274.8948221624933,694.8480115572639,
75,2.093906879425049,0.026970863342285156,37.077048194901174,35.818211753807184,-89.0,33.0,-114.0,1275,1274.9474110812466,348.3989267162002,
76,2.122131824493408,0.028224945068359375,35.42965265576429,35.813043809445055,-49.0,98.0,-50.0,1303,1288.9737055406233,422.6728337296937,
77,2.149146795272827,0.027014970779418945,37.01651236883213,35.82817151874686,0.0,83.0,-1.0,1299,1293.9868527703115,304.12103008211227,
78,2.1745338439941406,0.025387048721313477,39.39016350334801,35.86975673679613,63.0,-44.0,39.0,1355,1324.4934263851558,752.8899763488744,
79,2.201915740966797,0.02738189697265625,36.52047924212873,35.877848788761284,51.0,-33.0,49.0,1364,1344.2467131925778,737.1447385815724,
80,2.2294657230377197,0.02754998207092285,36.29766427526763,35.88303653800848,-41.0,-53.0,33.0,1433,1388.6233565962889,1173.956621256374,
81,2.258030891418457,0.028565168380737305,35.007670414235754,35.87196273879015,-10.0,36.0,113.0,1438,1413.3116782981444,1019.1186252377787,
82,2.291165828704834,0.03313493728637695,30.179625552245678,35.78963991722656,-24.0,28.0,114.0,1471,1442.155839149072,944.8122995437599,
83,2.3197128772735596,0.028547048568725586,35.02989100931223,35.78029023038094,3.0,5.0,93.0,1504,1473.077919574536,1014.0047033144745,
84,2.3464179039001465,0.026705026626586914,37.44613379282022,35.79924951151186,38.0,-36.0,92.0,1480,1476.5389597872681,571.8036390913855,
85,2.3710598945617676,0.024641990661621094,40.58113704090716,35.84894679166684,50.0,-76.0,90.0,1443,1459.769479893634,-54.360461288457884,
86,2.396951913833618,0.025892019271850586,38.62193942853986,35.8789008255297,32.0,-55.0,105.0,1480,1469.884739946817,168.15524989475173,
87,2.4221649169921875,0.025213003158569336,39.662074117502435,35.91828095175099,5.0,-20.0,92.0,1461,1465.4423699734084,-4.019178623974355,
88,2.450669765472412,0.02850484848022461,35.08175111661286,35.90855089487602,-21.0,-8.0,70.0,1499,1482.2211849867042,292.3055168520781,
89,2.478125810623169,0.027456045150756836,36.421851527019165,35.91423793678149,14.0,4.0,61.0,1457,1469.6105924933522,-83.4978053042652,
90,2.503314971923828,0.02518916130065918,39.69961476938221,35.9523276173409,35.0,-29.0,55.0,1522,1495.805296246676,478.21092135039186,
91,2.534026861190796,0.030711889266967773,32.56068004502581,35.911221539789466,12.0,51.0,29.0,1513,1504.4026481233382,379.0732725204437,
92,2.5583038330078125,0.0242769718170166,41.191298796955564,35.961326724760085,4.0,60.0,34.0,1504,1504.201324061669,185.39023647060787,
93,2.583817958831787,0.02551412582397461,39.19397462014316,35.9932477758796,-4.0,-9.0,26.0,1504,1504.1006620308344,90.72244569443116,
94,2.611423969268799,0.02760601043701172,36.22399557812554,35.99568706812479,10.0,8.0,21.0,1518,1511.0503310154172,171.2336121306971,
95,2.638252019882202,0.02682805061340332,37.274419017996,36.00869033135119,-30.0,11.0,23.0,1522,1516.5251655077086,187.65244352527196,
96,2.6644768714904785,0.026224851608276367,38.13176962589208,36.029586530544236,-47.0,-25.0,-3.0,1518,1517.2625827538543,107.88573403672972,
97,2.6906239986419678,0.026147127151489258,38.245119404754305,36.051116785161575,-6.0,34.0,33.0,1522,1519.631291376927,99.2386390806088,
98,2.7172930240631104,0.026669025421142578,37.49668329489174,36.06530437908485,-13.0,0.0,34.0,1546,1532.8156456884635,296.8040985739663,
99,2.7447590827941895,0.0274660587310791,36.40857284224963,36.06873937337229,-1.0,7.0,27.0,1527,1529.9078228442318,95.46720936869839,
100,2.7716658115386963,0.026906728744506836,37.1654246599619,36.07938575555932,1.0,26.0,31.0,,1529.9078228442318,95.46720936869839,
101,2.7961409091949463,0.02447509765625,40.85785536159601,36.12121251395715,-27.0,0.0,34.0,1504,1516.9539114221159,-216.90091494151937,
102,2.8233418464660645,0.027200937271118164,36.763439069498375,36.12739992065499,-40.0,-58.0,-2.0,1518,1517.476955711058,-98.83600404717234,
103,2.8508799076080322,0.027538061141967773,36.313377141719265,36.129196366752566,-25.0,-2.0,33.0,1508,1512.738477855529,-135.4530687463415,
104,2.8782248497009277,0.027344942092895508,36.56983425318023,36.133382703163896,-23.0,0.0,13.0,1518,1515.3692389277644,-19.623286187487608,
105,2.9040749073028564,0.02585005760192871,38.68463333425564,36.15609216413711,-3.0,2.0,-13.0,1555,1535.1846194638822,373.4637221154878,
106,2.9310920238494873,0.02701711654663086,37.01357242450449,36.16399592285307,15.0,23.0,25.0,1541,1538.092309731941,240.5438632201543,
107,2.9580516815185547,0.026959657669067383,37.092459120776105,36.17245792848019,-12.0,-23.0,43.0,1565,1551.5461548659705,369.79003193569815,
108,2.986179828643799,0.02812814712524414,35.55157741273797,36.1666095805922,-44.0,-15.0,39.0,1569,1560.2730774329852,340.02294757594655,
109,3.014488697052002,0.028308868408203125,35.3246193235413,36.15870250453942,-29.0,-31.0,5.0,1536,1548.1365387164926,-44.347831244787955,
110,3.0468029975891113,0.032314300537109375,30.946051233620587,36.10341728265376,7.0,-6.0,38.0,1569,1558.5682693582462,139.236519825124,
111,3.0741477012634277,0.027344703674316406,36.5701531057092,36.10756892207252,-19.0,-22.0,4.0,1569,1563.784134679123,164.99075659417565,
112,3.1010918617248535,0.02694416046142578,37.11379322549818,36.116311607004334,-23.0,0.0,-3.0,1569,1566.3920673395614,130.89051504985372,
113,3.1297478675842285,0.028656005859375,34.89669861554846,36.10514481705575,3.0,33.0,36.0,1593,1579.6960336697807,297.5775092334601,
114,3.1545958518981934,0.024847984313964844,40.24471310688927,36.137751189713754,-9.0,35.0,24.0,1588,1583.8480168348904,232.33644026896582,
115,3.18137788772583,0.02678203582763672,37.33846099063491,36.14785921650017,6.0,-24.0,12.0,1579,1581.4240084174453,70.9138482666113,
116,3.208038806915283,0.026660919189453125,37.508084132207756,36.15916358304305,32.0,-22.0,22.0,1569,1575.2120042087226,-81.0432641118932,
117,3.23441481590271,0.026376008987426758,37.91324155510761,36.17346773974192,-4.0,-5.0,24.0,1593,1584.1060021043613,128.07851324803738,
118,3.2630720138549805,0.028657197952270508,34.89524696955831,36.1622420525728,-11.0,-49.0,0.0,1602,1593.0530010521807,220.14312558428577,
119,3.292921781539917,0.029849767684936523,33.50109825158348,36.13811924325463,0.0,-41.0,0.0,1579,1586.0265005260903,-7.6261794525347,
120,3.318722724914551,0.02580094337463379,38.758272729792914,36.1584892582702,37.0,-7.0,10.0,1630,1608.0132502630452,422.27113164703167,
121,3.3502867221832275,0.03156399726867676,31.68166539516123,36.11631183648362,15.0,22.0,2.0,1616,1612.0066251315225,274.3939490137878,
122,3.3786778450012207,0.028391122817993164,35.22227727345253,36.108799239471715,-42.0,25.0,-11.0,1616,1614.0033125657612,172.36091372548205,
123,3.407649040222168,0.028971195220947266,34.51704330365225,36.0952664280183,1.0,18.0,16.0,1597,1605.5016562828805,-60.54556217173969,
124,3.435487985610962,0.027838945388793945,35.920900954909435,36.093853484382954,0.0,12.0,15.0,1672,1638.7508281414403,566.8973234961735,
125,3.465394973754883,0.0299069881439209,33.437001251604364,36.07092436697278,5.0,3.0,6.0,1621,1629.8754140707201,135.06504605249881,
126,3.4928367137908936,0.027441740036010742,36.44083788738391,36.073830620970526,23.0,16.0,25.0,1621,1625.43770703536,-13.324358307380137,
127,3.5175418853759766,0.024705171585083008,40.47735497630789,36.104758418939326,6.0,24.0,37.0,1640,1632.7188535176801,140.6985962459927,
128,3.5517477989196777,0.03420591354370117,29.234711089426362,36.03859486840065,-6.0,1.0,32.0,1649,1640.85942675884,189.34295152680914,
129,3.5777738094329834,0.026026010513305664,38.423099825029084,36.05594061309435,29.0,-16.0,23.0,1654,1647.42971337942,220.89686511420302,
130,3.6052029132843018,0.02742910385131836,36.45762564539402,36.05899671305085,28.0,10.0,37.0,1616,1631.71485668971,-176.0147485751324,
131,3.631643772125244,0.026440858840942383,37.82025410050405,36.0718198754771,-18.0,10.0,-6.0,1658,1644.857428344855,160.52032547826772,
132,3.658068895339966,0.02642512321472168,37.84277529661208,36.08461288636623,-13.0,31.0,-7.0,1621,1632.9287141724276,-145.44766226320644,
133,3.6835498809814453,0.025480985641479492,39.24494970760234,36.10647454149948,-3.0,21.0,7.0,1635,1633.9643570862138,-52.40195409831604,
134,3.7117738723754883,0.02822399139404297,35.43084980571042,36.101337152373915,0.0,-4.0,-2.0,1612,1622.9821785431068,-220.75493629931813,
135,3.7390568256378174,0.0272829532623291,36.652923544781665,36.105361938962076,6.0,0.0,13.0,1597,1609.9910892715534,-348.45816906649895,
136,3.7691657543182373,0.030108928680419922,33.212739337693804,36.0822550306227,-44.0,6.0,26.0,1630,1619.9955446357767,-8.091400419478902,
137,3.799801826477051,0.030636072158813477,32.64126010723986,36.05451185516646,-47.0,-26.0,23.0,1597,1608.4977723178883,-191.6965886507473,
138,3.8256049156188965,0.025803089141845703,38.75504961839115,36.07272654752816,-2.0,-22.0,33.0,1583,1595.748886158944,-342.89015215992663,
139,3.8516809940338135,0.026076078414916992,38.349324775306066,36.08813923461174,2.0,-29.0,51.0,1569,1582.374443079472,-427.89550675172205,
140,3.876837730407715,0.025156736373901367,39.75078424868502,36.111906077966445,-22.0,23.0,20.0,1560,1571.1872215397361,-436.29816826000285,
141,3.905552864074707,0.028715133666992188,34.824842245101294,36.10244308737717,-41.0,-19.0,8.0,1551,1561.093610769868,-393.9032855020568,
142,3.9323928356170654,0.0268399715423584,37.25786364645792,36.110329241233494,-20.0,71.0,-9.0,1532,1546.546805384934,-467.94308851274434,
143,3.959364891052246,0.026972055435180664,37.075409488283285,36.11690357793624,13.0,67.0,0.0,1518,1532.273402692467,-498.5676690635621,
