Index,Time,Difference,Hz,AveHz,0x6103 Linear-Acceleration-X,0x6103 Linear-Acceleration-Y,0x6103 Linear-Acceleration-Z,0x6103 Range,0x6103 Smoothed Range,0x6103 Velocity,
0,9.5367431640625e-07,9.5367431640625e-07,1048576.0,0.0,-127.0,46.0,-1915.0,1116,1099.5,8650752.0,
1,0.018145084381103516,0.01814413070678711,55.11424141284066,55.11134470343994,-90.0,81.0,-1903.0,1116,1107.75,4325603.346245828,
2,0.037007808685302734,0.01886272430419922,53.01461145659538,54.04264859362719,-80.0,96.0,-1881.0,1130,1118.875,2163096.5668991413,
3,0.05444693565368652,0.01743912696838379,57.34232004921731,55.09951963287165,-120.0,158.0,-1885.0,1126,1122.4375,1081650.4244571584,
4,0.07213187217712402,0.0176849365234375,56.545297670405525,55.453988358679595,-209.0,127.0,-1983.0,1144,1133.21875,541130.0267238338,
5,0.08922100067138672,0.017089128494262695,58.516734796378195,56.040617818395596,-392.0,293.0,-2148.0,1097,1115.109375,270035.1626148153,
6,0.1063387393951416,0.017117738723754883,58.41893115311225,56.42346367963553,-370.0,266.0,-2141.0,1195,1155.0546875,136184.36253782117,
7,0.12407493591308594,0.017736196517944336,56.38187415144305,56.417518562358765,-117.0,65.0,-2015.0,1191,1173.02734375,68598.84729033792,
8,0.14236807823181152,0.018293142318725586,54.66529383398282,56.192371909199764,-73.0,24.0,-1964.0,1205,1189.013671875,34736.37230730875,
9,0.16101574897766113,0.01864767074584961,53.626000460275655,55.895153468799094,28.0,26.0,-1802.0,1162,1175.5068359375,17006.027358553754,
10,0.1853649616241455,0.024349212646484375,41.06908976970077,53.94762803272637,-49.0,81.0,-1849.0,1209,1192.25341796875,8846.89711966541,
11,0.20311307907104492,0.017748117446899414,56.344003976303384,54.157024502358205,-153.0,55.0,-1922.0,1252,1222.126708984375,5265.0389737175265,
12,0.2233109474182129,0.02019786834716797,49.51017517352094,53.73672960836357,-249.0,59.0,-1965.0,1270,1246.0633544921875,3225.073242937898,
13,0.24080896377563477,0.017498016357421875,57.14933507739263,53.98470138392477,-280.0,50.0,-1967.0,1327,1286.5316772460938,2768.9054900104793,
14,0.26023411750793457,0.019425153732299805,51.47964406259589,53.79771159165223,-374.0,20.0,-2008.0,1280,1283.2658386230469,1300.390640065074,
15,0.28015589714050293,0.01992177963256836,50.19631872471816,53.54161791024961,-329.0,5.0,-1957.0,1256,1269.6329193115234,308.0341385777391,
16,0.30117201805114746,0.02101612091064453,47.58252030675682,53.125785401759174,-248.0,27.0,-1889.0,1214,1241.8164596557617,-507.77155892731236,
17,0.31856584548950195,0.017393827438354492,57.49165924199849,53.3641639262305,-181.0,16.0,-1847.0,1214,1227.9082298278809,-653.689384425619,
18,0.33963608741760254,0.021070241928100586,47.460299858557285,52.997901774401086,-250.0,0.0,-1906.0,1219,1223.4541149139404,-432.5415069228519,
19,0.35881710052490234,0.019181013107299805,52.13488956010491,52.95176838619311,-425.0,-77.0,-2017.0,1252,1237.7270574569702,155.78838812786444,
20,0.3780210018157959,0.019203901290893555,52.07275255440923,52.90711337182717,-468.0,-111.0,-2017.0,1233,1235.363528728485,16.356470747110983,
21,0.3975529670715332,0.019531965255737305,51.19812506866204,52.82314996839501,-408.0,-65.0,-1959.0,1205,1220.1817643642426,-380.46069996816783,
22,0.4156320095062256,0.018079042434692383,55.3126640203616,52.9314381395605,-268.0,9.0,-1860.0,1195,1207.5908821821213,-538.4479679138997,
23,0.4376220703125,0.021990060806274414,45.475090260535815,52.55676429567643,-238.0,21.0,-1819.0,1200,1203.7954410910606,-355.5229970542144,
24,0.45571398735046387,0.018091917037963867,55.273302320677885,52.66461128291627,-343.0,23.0,-1881.0,1130,1166.8977205455303,-1197.4909298555997,
25,0.4729490280151367,0.01723504066467285,58.02133104621727,52.85981896383108,-404.0,-63.0,-1965.0,1289,1227.9488602727652,1172.3887295035797,
26,0.49013495445251465,0.01718592643737793,58.187145374082654,53.046614537096715,-345.0,-78.0,-1938.0,1294,1260.9744301363826,1547.0261821099048,
27,0.5083868503570557,0.018251895904541016,54.78882880058521,53.109162798048516,-365.0,-23.0,-1946.0,1233,1246.9872150681913,390.3415251709032,
28,0.527385950088501,0.018999099731445312,52.63407288424857,53.092047665094796,-379.0,-33.0,-1941.0,1177,1211.9936075340956,-725.7572821307384,
29,0.5450680255889893,0.01768207550048828,56.554446901461624,53.204368333040996,-381.0,-21.0,-1927.0,1153,1182.4968037670478,-1196.966352268539,
30,0.5651018619537354,0.020033836364746094,49.91555195887085,53.08777411612225,-403.0,-24.0,-1946.0,1209,1195.748401883524,-267.7527589737508,
31,0.583906888961792,0.01880502700805664,53.17727007632426,53.09065638036767,21.0,-12.0,-5.0,1252,1223.874200941762,613.9502268293002,
32,0.6021561622619629,0.0182492733001709,54.79670250708752,53.142360745415196,76.0,24.0,18.0,1214,1218.937100470881,171.70670053941674,
33,0.6207160949707031,0.018559932708740234,53.87950569072271,53.16440199856192,82.0,58.0,11.0,1177,1197.9685502354405,-479.03421059860204,
34,0.6394078731536865,0.0186917781829834,53.49945790124874,53.17419667090624,-37.0,36.0,-59.0,1172,1184.9842751177202,-586.8429453186538,
35,0.6569900512695312,0.017582178115844727,56.87577462878839,53.27325723177685,-7.0,28.0,-40.0,1126,1155.4921375588601,-1132.1155572188038,
36,0.6757729053497314,0.018782854080200195,53.24004518856069,53.27233411551028,71.0,-36.0,-3.0,1060,1107.74606877943,-1837.0592083058937,
37,0.6964108943939209,0.020637989044189453,48.454333310228506,53.12955368425233,112.0,-21.0,32.0,971,1039.373034389715,-2575.014503028431,
38,0.71468186378479,0.01827096939086914,54.73163347861263,53.17051114010474,38.0,54.0,0.0,1480,1259.6865171948575,4741.551144129627,
39,0.7350509166717529,0.02036905288696289,49.09408432240092,53.057548960810266,-42.0,70.0,-36.0,1284,1271.8432585974288,2669.187615816541,
40,0.7565739154815674,0.021522998809814453,46.46192702217693,52.869916846841825,-108.0,71.0,-74.0,1200,1235.9216292987144,500.0997484109905,
41,0.7771017551422119,0.02052783966064453,48.71433217189315,52.76014335149311,-99.0,73.0,-76.0,1186,1210.9608146493572,-357.92483384942614,
42,0.7973959445953369,0.020294189453125,49.275187969924815,52.6714492149997,-32.0,84.0,-22.0,1200,1205.4804073246787,-313.98646746235556,
43,0.8193621635437012,0.021966218948364258,45.52444835183919,52.479845803505384,-15.0,134.0,-13.0,1130,1167.7402036623394,-1016.0442099382078,
44,0.8397550582885742,0.020392894744873047,49.03668716533776,52.39623097915273,4.0,111.0,-2.0,1186,1176.8701018311697,-284.1721247909426,
45,0.8580548763275146,0.01829981803894043,54.6453520943261,52.44419819930463,85.0,74.0,49.0,1162,1169.4350509155847,-345.231549956162,
46,0.8760631084442139,0.01800823211669922,55.530159402637295,52.507632791079,77.0,50.0,37.0,1134,1151.7175254577924,-664.5442814238281,
47,0.8935060501098633,0.017442941665649414,57.3297795273438,52.601770289323724,39.0,38.0,21.0,1139,1145.3587627288962,-514.5453733690686,
48,0.9119889736175537,0.01848292350769043,54.10399494343614,52.632215288305666,-44.0,63.0,-26.0,1134,1139.679381364448,-410.91129699650674,
49,0.9385550022125244,0.026566028594970703,37.642058406476046,52.207915236175516,-53.0,33.0,-9.0,1167,1153.339690682224,51.645432096872355,
50,0.9564039707183838,0.017848968505859375,56.0256465056636,52.27916396294705,-22.0,16.0,25.0,1186,1169.669845341112,483.2764521992729,
51,0.9740560054779053,0.017652034759521484,56.65069288743618,52.35838567103506,13.0,33.0,52.0,1186,1177.834922670556,472.9168701958827,
52,0.9965219497680664,0.022465944290161133,44.511816956563266,52.18148984285057,-44.0,64.0,36.0,1252,1214.917461335278,1061.7640217623355,
53,1.014146089553833,0.0176241397857666,56.74035794970306,52.260715242038756,-128.0,108.0,-13.0,1158,1186.458730667639,-276.49727155684593,
54,1.0349068641662598,0.020760774612426758,48.16775956911699,52.17860840405518,-132.0,93.0,-25.0,1134,1160.2293653338195,-769.9535173033976,
55,1.0531530380249023,0.018246173858642578,54.80601071475238,52.2241288912272,-68.0,67.0,10.0,1139,1149.6146826669096,-675.8509646398778,
56,1.0759198665618896,0.022766828536987305,43.923553004995235,52.04848589602536,-43.0,60.0,26.0,1172,1160.8073413334548,-92.11481421653053,
57,1.0924789905548096,0.016559123992919922,60.38966798168572,52.17491639912714,-8.0,56.0,53.0,1233,1196.9036706667275,1043.8652647886956,
58,1.1098029613494873,0.017323970794677734,57.72348682942941,52.261529316405614,-27.0,74.0,42.0,1364,1280.4518353333638,2933.2783237731364,
59,1.127384901046753,0.017581939697265625,56.876545888479065,52.33350202332828,1.0,89.0,53.0,1374,1327.2259176666819,2796.813281997801,
60,1.144819974899292,0.017435073852539062,57.35565036648069,52.409986998417025,37.0,59.0,80.0,1363,1345.112958833341,1911.3680806217758,
61,1.1637141704559326,0.018894195556640625,52.926307288512014,52.41837003333968,19.0,25.0,60.0,1386,1365.5564794166705,1496.684066537046,
62,1.1858470439910889,0.02213287353515625,45.18166149603585,52.283302736356866,-61.0,3.0,12.0,1350,1357.7782397083351,572.6251365000062,
63,1.2072129249572754,0.021365880966186523,46.80359314846845,52.186319991752605,-91.0,-29.0,7.0,1369,1363.3891198541676,417.61724402518314,
64,1.2250540256500244,0.017841100692749023,56.050353463136936,52.24259392645238,-142.0,-43.0,-6.0,1336,1349.694559927084,-174.98384020498378,
65,1.2427589893341064,0.01770496368408203,56.48133584702397,52.302981155524144,-96.0,-37.0,24.0,1336,1342.847279963542,-280.8636797321974,
66,1.2603099346160889,0.017550945281982422,56.97698807292091,52.36807089051844,-76.0,17.0,31.0,1336,1339.423639981771,-237.9661870697687,
67,1.2783167362213135,0.01800680160522461,55.534570876254534,52.412675279564176,-90.0,21.0,29.0,1336,1337.7118199908855,-166.5156878404941,
68,1.2975051403045654,0.019188404083251953,52.11480828011232,52.40827021620758,-138.0,33.0,-8.0,1355,1346.3559099954427,141.9847027515213,
69,1.3216099739074707,0.024104833602905273,41.485455426644116,52.20904908578638,-145.0,40.0,-39.0,1336,1341.1779549977214,-36.41255925380891,
70,1.341228723526001,0.019618749618530273,50.97164801244425,52.19094906942841,-74.0,24.0,-4.0,1350,1345.5889774988607,94.21226352461784,
71,1.3581089973449707,0.016880273818969727,59.24074518721487,52.27857273517895,-42.0,16.0,9.0,1331,1338.2944887494305,-168.95934287569202,
72,1.3764970302581787,0.018388032913208008,54.3831961102107,52.306687495355895,18.0,1.0,43.0,1327,1332.6472443747152,-238.03727059405722,
73,1.394263744354248,0.017766714096069336,56.28502797944149,52.35738237876212,17.0,-10.0,44.0,1308,1320.3236221873576,-465.8363451087732,
74,1.411451816558838,0.017188072204589844,58.179881262830826,52.428286344491895,16.0,-18.0,27.0,1266,1293.1618110936788,-1023.0536447112237,
75,1.4376871585845947,0.026235342025756836,38.11652232390335,52.16712102641135,-30.0,-40.0,2.0,1289,1291.0809055468394,-551.185263720631,
76,1.4583899974822998,0.020702838897705078,48.3025542990073,52.11226087068826,-39.0,-33.0,-5.0,1270,1280.5404527734197,-530.1580280724291,
77,1.4749398231506348,0.01654982566833496,60.42359720521501,52.205519704200185,-63.0,-58.0,-34.0,1308,1294.27022638671,149.72214122790558,
78,1.4924778938293457,0.017538070678710938,57.018814573137576,52.262080612712076,-113.0,-120.0,-49.0,1299,1296.635113193355,142.28259177122865,
79,1.509751796722412,0.017273902893066406,57.89079666537846,52.32648185715337,-102.0,-101.0,-39.0,1266,1281.3175565966776,-372.2314812887239,
80,1.5273637771606445,0.017611980438232422,56.7795316095844,52.377829824352176,-86.0,-76.0,-31.0,1266,1273.6587782983388,-403.5466628850255,
81,1.5446460247039795,0.01728224754333496,57.86284437209431,52.43919882260602,-56.0,-44.0,-12.0,1233,1253.3293891491694,-789.9314717015786,
82,1.5626049041748047,0.017958879470825195,55.6827613674079,52.476476799043034,-19.0,19.0,-4.0,1256,1254.6646945745847,-357.7889891727867,
83,1.583070993423462,0.020466089248657227,48.86131335841847,52.42973962936986,-24.0,29.0,-10.0,1191,1222.8323472872924,-956.5796424555901,
84,1.601633071899414,0.01856207847595215,53.873277246162736,52.446469465307956,-79.0,2.0,-63.0,1162,1192.4161736436463,-1297.599298963581,
85,1.6198339462280273,0.01820087432861328,54.94241550956249,52.474514562392294,-36.0,2.0,-44.0,1162,1177.2080868218231,-1066.584162116845,
86,1.6395409107208252,0.01970696449279785,50.74348210072952,52.45370788716095,-12.0,-10.0,-30.0,1167,1172.1040434109116,-662.7905487898913,
87,1.656559944152832,0.017019033432006836,58.75774344031492,52.51847378483606,12.0,-12.0,-11.0,1158,1165.052021705456,-538.5757154472939,
88,1.6755640506744385,0.019004106521606445,52.620205999322536,52.5196276230555,54.0,-35.0,8.0,1162,1163.526010852728,-309.4373604375202,
89,1.696052074432373,0.02048802375793457,48.80900236230552,52.47480389408805,44.0,-41.0,7.0,1186,1174.763005426364,119.51456712615018,
90,1.718153953552246,0.022101879119873047,45.2450216823801,52.38180188331025,-1.0,-54.0,-24.0,1177,1175.881502713182,85.06050055995595,
91,1.7362267971038818,0.018072843551635742,55.33163595108373,52.41250748565384,-66.0,-56.0,-51.0,1167,1171.4407513565911,-80.3267684261067,
92,1.7554781436920166,0.019251346588134766,51.94441829935848,52.40737421344996,-76.0,-59.0,-55.0,1186,1178.7203756782956,148.90454120134603,
93,1.7749509811401367,0.019472837448120117,51.353584328129784,52.39581317353429,-64.0,-58.0,-38.0,1153,1165.8601878391478,-255.7560997359594,
94,1.7920708656311035,0.017119884490966797,58.41160905773891,52.45328284877649,-78.0,-62.0,-37.0,1181,1173.430093919574,93.20714741884554,
95,1.8105340003967285,0.018463134765625,54.16198347107438,52.47070752561585,-17.0,30.0,-4.0,1195,1184.2150469597868,338.6707978595861,
96,1.8280079364776611,0.017473936080932617,57.22809076148504,52.51618337335,-9.0,46.0,1.0,1191,1187.6075234798934,266.4078760292263,
97,1.845452070236206,0.017444133758544922,57.32586173905913,52.561646853057866,-1.0,53.0,9.0,1191,1189.3037617399468,181.82309800077502,
98,1.8639490604400635,0.018496990203857422,54.06284963006883,52.57654411267172,-10.0,61.0,-2.0,1191,1190.1518808699734,113.83741749789365,
99,1.8840367794036865,0.020087718963623047,49.7816602179125,52.54674488431926,-52.0,9.0,-26.0,1162,1176.0759404349867,-293.44313324209503,
100,1.9031109809875488,0.019074201583862305,52.42683399372523,52.54554306029421,-52.0,-2.0,-25.0,1116,1146.0379702174932,-934.1194056715439,
101,1.9224929809570312,0.019381999969482422,51.59426279922258,52.53595253685735,-5.0,28.0,32.0,1121,1133.5189851087466,-790.0136066758855,
102,1.9518468379974365,0.029353857040405273,34.06707331930896,52.25819875531338,10.0,9.0,40.0,1102,1117.7594925543733,-663.4466975004124,
103,1.9720509052276611,0.02020406723022461,49.49498477732411,52.22988905963829,13.0,-24.0,42.0,1766,1441.8797462771868,7689.440163266335,
104,1.9939069747924805,0.021856069564819336,45.753880725638425,52.158902754640295,-18.0,-57.0,25.0,1579,1510.4398731385934,5413.166015108886,
105,2.011514902114868,0.017607927322387695,56.792601519234154,52.19946413998972,-84.0,-54.0,-13.0,1494,1502.2199365692968,2473.1672165077225,
106,2.0310919284820557,0.0195770263671875,51.08028059236165,52.188676698262256,-128.0,-41.0,-20.0,1447,1474.6099682846484,531.421144690838,
107,2.0525989532470703,0.02150702476501465,46.4964359750352,52.12903369688139,-128.0,-20.0,-14.0,1419,1446.8049841423242,-380.7057601348041,
108,2.07515811920166,0.022559165954589844,44.3278799408159,52.04422689561072,-105.0,32.0,21.0,1419,1432.9024920711622,-498.4868797717088,
109,2.093311071395874,0.018152952194213867,55.08745846412482,52.070617448803716,-83.0,48.0,27.0,1405,1418.951246035581,-633.5127831397846,
110,2.1142637729644775,0.020952701568603516,47.726542409139526,52.027566951007934,-20.0,95.0,56.0,1391,1404.9756230177904,-650.2604738962586,
111,2.135939836502075,0.021676063537597656,46.13383782832505,51.96775588107355,-29.0,79.0,55.0,1391,1397.9878115088952,-486.31751841126703,
112,2.1591899394989014,0.023250102996826172,43.01056215262823,51.871305044146624,-57.0,1.0,28.0,1355,1376.4939057544475,-705.3912438828372,
113,2.1848158836364746,0.025625944137573242,39.02295246690174,51.720605313395716,-89.0,-50.0,21.0,1374,1375.2469528772237,-377.02551336960295,
114,2.203099012374878,0.01828312873840332,54.69523374845146,51.745291228246366,-93.0,-38.0,22.0,1363,1369.1234764386118,-355.97524426631037,
115,2.2220349311828613,0.0189359188079834,52.809689888319504,51.75436190770492,-81.0,0.0,45.0,1345,1357.0617382193059,-496.4759495709725,
116,2.241523027420044,0.019488096237182617,51.31337550006729,51.750527913832805,-78.0,-1.0,47.0,1355,1356.030869109653,-274.6866616430069,
