Index,Time,Difference,Hz,AveHz,0x6103 Linear-Acceleration-X,0x6103 Linear-Acceleration-Y,0x6103 Linear-Acceleration-Z,0x6103 Range,0x6103 Smoothed Range,0x6103 Velocity,
0,0.0,0.0,0,0,-41.0,-5.0,-2.0,723,361.5,,
1,0.021251916885375977,0.021251916885375977,47.05457890662688,47.05457890662688,-59.0,-7.0,-12.0,775,568.25,4864.267094472553,
2,0.04116392135620117,0.019912004470825195,50.2209610019517,48.58623605592688,53.0,-44.0,49.0,677,622.625,3797.5159244768383,
3,0.06165289878845215,0.020488977432250977,48.80673051188661,48.65951251203638,47.0,-1.0,77.0,611,616.8125,1756.9134016882488,
4,0.08403587341308594,0.02238297462463379,44.676814264867225,47.598719898318166,-30.0,33.0,68.0,681,648.90625,1595.3799547506655,
5,0.10183000564575195,0.017794132232666016,56.19830104242035,49.10144086011435,-83.0,88.0,65.0,733,690.953125,1979.1714469468418,
6,0.12023591995239258,0.018405914306640625,54.33036269430052,49.90189289835933,14.0,100.0,84.0,728,709.4765625,1492.7782623335245,
7,0.14228487014770508,0.0220489501953125,45.35363321799308,49.1970790199502,-5.0,98.0,55.0,658,683.73828125,162.72684742973797,
8,0.16693401336669922,0.02464914321899414,40.56936142224286,47.923127460109804,-12.0,109.0,85.0,700,691.869140625,246.29531004377233,
9,0.18436074256896973,0.017426729202270508,57.38311466214275,48.81733429031445,-34.0,151.0,70.0,654,672.9345703125,-420.11465463840966,
10,0.2043750286102295,0.020014286041259766,49.96431039001263,48.92965675895433,-18.0,155.0,48.0,691,681.96728515625,15.599356739594867,
11,0.22222495079040527,0.01784992218017578,56.02265320297056,49.4993922188999,0.0,122.0,63.0,681,681.483642578125,-5.7477918444463025,
12,0.23963403701782227,0.017409086227416992,57.44126871088347,50.07635872322898,8.0,16.0,36.0,714,697.7418212890625,464.0713101200398,
13,0.2594139575958252,0.01977992057800293,50.55632028735702,50.11295506410027,-59.0,50.0,-3.0,681,689.3709106445312,20.434435239135894,
14,0.27681708335876465,0.017403125762939453,57.46094199523248,50.574913333132365,-80.0,58.0,-8.0,733,711.1854553222656,636.9593608094192,
15,0.29275989532470703,0.015942811965942383,62.72419207704616,51.236526039070824,-57.0,-40.0,12.0,756,733.5927276611328,1021.2187074576041,
16,0.30907678604125977,0.016316890716552734,61.28618603699699,51.76707123473227,-28.0,-83.0,34.0,747,740.2963638305664,716.0295004309266,
17,0.32633209228515625,0.017255306243896484,57.95318760880979,52.09417155682323,-51.0,-50.0,26.0,742,741.1481819152832,382.6975368515481,
18,0.343350887298584,0.017018795013427734,58.75856658541369,52.424504103135995,-77.0,-52.0,28.0,709,725.0740909576416,-280.89650349151606,
19,0.3616669178009033,0.018316030502319336,54.59698267445947,52.53452573303774,-121.0,-14.0,24.0,761,743.0370454788208,349.913306641704,
20,0.3823409080505371,0.02067399024963379,48.3699560619515,52.3093385480908,-135.0,7.0,28.0,803,773.0185227394104,900.0580222044105,
21,0.4019758701324463,0.01963496208190918,50.92956104668812,52.24194176899412,-81.0,14.0,34.0,803,788.0092613697052,831.7648802054777,
22,0.4214639663696289,0.019488096237182617,51.31337550006729,52.19900574063724,-23.0,27.0,49.0,855,821.5046306848526,1275.262671693534,
23,0.4378998279571533,0.016435861587524414,60.8425664012069,52.52342780607453,-2.0,-6.0,104.0,813,817.2523153424263,508.2704465565455,
24,0.45989489555358887,0.021995067596435547,45.464738656318424,52.18583687716408,-88.0,-18.0,34.0,878,847.6261576712132,944.604625011531,
25,0.47783994674682617,0.017945051193237305,55.725669948317325,52.318773619079074,-110.0,-20.0,17.0,803,825.3130788356066,-149.40332085613284,
26,0.4997859001159668,0.021945953369140625,45.56648705023466,52.02227592648601,-136.0,-11.0,64.0,822,823.6565394178033,-112.4430013928348,
27,0.5337908267974854,0.034004926681518555,29.40750348811936,50.581611081607285,-114.0,92.0,49.0,869,846.3282697089016,277.1379931121707,
28,0.5565180778503418,0.022727251052856445,44.00004196170994,50.31283100120555,-63.0,21.0,17.0,897,871.6641348544508,695.9585613262794,
29,0.5780079364776611,0.021489858627319336,46.53357741166029,50.17232146797831,-22.0,-19.0,36.0,896,883.8320674272254,631.0879968206743,
30,0.5966370105743408,0.018629074096679688,53.67953312173646,50.28182876406057,-1.0,34.0,57.0,869,876.4160337136127,116.49938472944345,
31,0.6142470836639404,0.01761007308959961,56.78568140586499,50.468290081390684,-5.0,120.0,66.0,897,886.7080168568064,350.4683302666854,
32,0.6332950592041016,0.019047975540161133,52.49901743582041,50.52936942255044,-25.0,84.0,42.0,883,884.8540084284032,126.56735472889454,
33,0.6578810214996338,0.024585962295532227,40.673616431182786,50.16104572339965,-64.0,36.0,13.0,878,881.4270042142016,-6.410650093793919,
34,0.6770138740539551,0.01913285255432129,52.266121696220516,50.220536539979896,-95.0,-31.0,13.0,883,882.2135021071008,17.348272245148493,
35,0.7052278518676758,0.028213977813720703,35.44342476634724,49.62935015585171,-123.0,10.0,0.0,897,889.6067510535504,139.69516752875552,
36,0.7234170436859131,0.018189191818237305,54.97770379205935,49.7638261556223,-104.0,-7.0,7.0,874,881.8033755267752,-144.65825038024823,
37,0.7428350448608398,0.019418001174926758,51.49860642151145,49.80917399626919,-80.0,27.0,-31.0,878,879.9016877633876,-121.2962600217753,
38,0.759207010269165,0.016371965408325195,61.080021552665684,50.05222486885058,-46.0,43.0,-37.0,869,874.4508438816938,-227.11696089792423,
39,0.7817981243133545,0.022591114044189453,44.26519197078751,49.88500072733394,-27.0,21.0,-26.0,888,881.2254219408469,36.380518705786415,
40,0.8027238845825195,0.02092576026916504,47.78798892547483,49.83033489878427,-47.0,11.0,-35.0,906,893.6127109704234,314.17207483392315,
41,0.8238928318023682,0.021168947219848633,47.2390048316796,49.76375375218085,-32.0,26.0,4.0,874,883.8063554852117,-74.53519965658063,
42,0.8416957855224609,0.017802953720092773,56.17045439327182,49.899263751130206,-3.0,-3.0,10.0,869,876.4031777426059,-245.18752870645412,
43,0.8611159324645996,0.019420146942138672,51.49291624720701,49.935204284200985,2.0,-44.0,35.0,902,889.2015888713029,206.91999182043162,
44,0.8790090084075928,0.017893075942993164,55.88754014044158,50.05636982004329,0.0,-45.0,10.0,910,899.6007944356514,394.0530051133327,
45,0.9031400680541992,0.024131059646606445,41.44036833213125,49.82615830227949,18.0,-15.0,-34.0,897,898.3003972178258,170.08203271427928,
46,0.9236199855804443,0.020479917526245117,48.82832163354637,49.80403273873674,82.0,16.0,-45.0,892,895.1501986089129,8.13156091436521,
47,0.9418830871582031,0.01826310157775879,54.75521207294944,49.90003604566865,85.0,52.0,-35.0,896,895.5750993044564,15.698544304398174,
48,0.9614551067352295,0.019572019577026367,51.09334762641459,49.92432788982886,72.0,84.0,30.0,906,900.7875496522282,141.01004095426362,
49,0.9806308746337891,0.01917576789855957,52.14915018214823,49.96783322603295,48.0,89.0,17.0,869,884.8937748261142,-343.91840470700254,
50,0.9967000484466553,0.01606917381286621,62.23095298149824,50.16554386439971,24.0,79.0,-25.0,906,895.4468874130571,156.40592424974966,
51,1.0141260623931885,0.017426013946533203,57.38546996853195,50.2896058894764,6.0,36.0,-22.0,900,897.7234437065285,143.52358853021423,
52,1.0319099426269531,0.01778388023376465,56.23069807349412,50.39199435138942,9.0,34.0,3.0,933,915.3617218532643,567.6681407678102,
53,1.053800106048584,0.02189016342163086,45.68261920839959,50.294168406125124,17.0,35.0,23.0,933,924.1808609266321,485.2747564011962,
54,1.0710911750793457,0.01729106903076172,57.83332414097402,50.41587612371068,27.0,20.0,16.0,990,957.0904304633161,1194.2722793780829,
55,1.088575839996338,0.017484664916992188,57.19297480091633,50.52472963223676,-11.0,2.0,-5.0,943,950.0452152316581,395.6677310834157,
56,1.1110050678253174,0.022429227828979492,44.58468243422801,50.404810582560586,-50.0,-6.0,29.0,947,948.522607615829,163.89137702986937,
57,1.1275041103363037,0.016499042510986328,60.60957775786827,50.55413942836843,-71.0,-6.0,29.0,961,954.7613038079145,271.0080594958965,
58,1.145522117614746,0.018018007278442383,55.50003308059757,50.63193377773449,-43.0,26.0,13.0,896,925.3806519039572,-679.8095465516278,
59,1.1704847812652588,0.024962663650512695,40.059827508810805,50.40646486340709,31.0,24.0,41.0,896,910.6903259519786,-634.1507351180485,
60,1.1887321472167969,0.018247365951538086,54.802430260665055,50.47394414332887,12.0,-8.0,41.0,924,917.3451629759893,-134.72474660680507,
61,1.2073478698730469,0.01861572265625,53.718032786885246,50.52396374080171,-9.0,12.0,50.0,919,918.1725814879946,-45.138725925212896,
62,1.2279980182647705,0.020650148391723633,48.42580213131978,50.48868082670805,-20.0,64.0,59.0,975,946.5862907439973,665.408968161411,
63,1.244426965713501,0.01642894744873047,60.868172055494284,50.6257110588073,-32.0,59.0,13.0,975,960.7931453719987,765.0771200129959,
64,1.2663190364837646,0.021892070770263672,45.678639106096576,50.540186284896414,34.0,-39.0,41.0,1008,984.3965726859993,921.6247789781075,
65,1.2849540710449219,0.018635034561157227,53.66236358286102,50.585465632356915,58.0,-54.0,66.0,985,984.6982863429996,468.9077234689855,
66,1.3052358627319336,0.02028179168701172,49.3053086942211,50.56557353692244,-39.0,-19.0,72.0,1008,996.3491431714998,521.6784079751808,
67,1.3232970237731934,0.018061161041259766,55.36742614251393,50.63111213607888,-57.0,-8.0,87.0,1065,1030.6745715857498,1211.0945152556594,
68,1.34226393699646,0.0189669132232666,52.72339195253479,50.66067717811251,-26.0,47.0,124.0,1032,1031.3372857928748,623.0175280752111,
69,1.3600759506225586,0.017812013626098633,56.141883842642784,50.73246091030142,-14.0,13.0,81.0,1036,1033.6686428964374,376.95215388957126,
70,1.377587080001831,0.01751112937927246,57.10653940937002,50.813484690860314,-11.0,-2.0,63.0,1046,1039.8343214482188,364.526359546192,
71,1.395684003829956,0.018096923828125,55.25801011804384,50.871113952130905,51.0,20.0,70.0,1060,1049.9171607241094,460.8419971359821,
72,1.4206440448760986,0.024960041046142578,40.064036679721085,50.68123873794119,52.0,24.0,63.0,1069,1059.4585803620548,421.554891743619,
73,1.4378268718719482,0.01718282699584961,58.197641182183986,50.77106390768674,9.0,32.0,40.0,1074,1066.7292901810274,422.3465264639839,
74,1.4593639373779297,0.021537065505981445,46.43158092834291,50.707022494304866,14.0,43.0,48.0,1060,1063.3646450905137,133.06036782432258,
75,1.476207971572876,0.01684403419494629,59.36820054070121,50.8058494766755,45.0,60.0,58.0,1088,1075.6823225452567,432.1693565765906,
76,1.4954400062561035,0.01923203468322754,51.99657844170334,50.82116278958537,20.0,66.0,11.0,1074,1074.8411612726284,194.21592424112328,
77,1.5160889625549316,0.020648956298828125,48.42859782006281,50.7885763314566,-14.0,34.0,20.0,1102,1088.4205806363143,425.9240816175212,
78,1.5381889343261719,0.022099971771240234,45.248926575614384,50.708985261403626,-8.0,21.0,46.0,1130,1109.2102903181571,683.3180642697839,
79,1.5595297813415527,0.02134084701538086,46.858496257401406,50.65629457363867,-15.0,14.0,47.0,1097,1103.1051451590786,198.6200713411041,
80,1.575531005859375,0.016001224517822266,62.49521709330393,50.77653165979042,-35.0,21.0,31.0,1088,1095.5525725795392,-136.6897958150726,
81,1.5987889766693115,0.023257970809936523,42.996012342262,50.66334655918371,-35.0,40.0,22.0,1102,1098.7762862897696,0.9585193289567258,
82,1.6168138980865479,0.018024921417236328,55.47874394857279,50.71703063478401,-23.0,53.0,33.0,1074,1086.388143144885,-343.16005110218384,
83,1.635185956954956,0.018372058868408203,54.43048093643749,50.75875293997915,-8.0,37.0,44.0,1112,1099.1940715724425,176.93639602368506,
84,1.6629579067230225,0.027771949768066406,36.00755468562206,50.512403026200474,20.0,40.0,6.0,1097,1098.097035786221,68.71740997961788,
85,1.6816051006317139,0.018647193908691406,53.62737175880939,50.54694468283237,7.0,35.0,6.0,1107,1102.5485178931106,153.71934790173307,
86,1.7031199932098389,0.021514892578125,46.47943262411348,50.49556128920628,-34.0,6.0,23.0,1079,1090.7742589465552,-196.77076375177683,
87,1.7290568351745605,0.02593684196472168,38.55519501411014,50.31644896231345,-30.0,25.0,31.0,1074,1082.3871294732776,-260.06908810129244,
88,1.748809814453125,0.019752979278564453,50.6252745926373,50.319937178256694,-27.0,34.0,20.0,1055,1068.6935647366388,-476.6547815228431,
89,1.7647249698638916,0.0159151554107666,62.83319101763217,50.43278783937892,-26.0,3.0,26.0,1083,1075.8467823683195,-13.597645840377083,
90,1.7837600708007812,0.01903510093688965,52.53452573303774,50.455216188125796,-19.0,36.0,47.0,1013,1044.4233911841598,-832.2052993119644,
91,1.8031997680664062,0.019439697265625,51.44113029827316,50.46584500040195,-55.0,31.0,36.0,1013,1028.7116955920799,-820.2163397354747,
92,1.8261549472808838,0.02295517921447754,43.563153685566206,50.37907661504111,-66.0,12.0,24.0,1036,1032.35584779604,-330.73278861038136,
93,1.8564708232879639,0.030315876007080078,32.986016955817355,50.09505069155317,-13.0,65.0,11.0,1046,1039.17792389802,-52.84983531829678,
94,1.879641056060791,0.02317023277282715,43.15882407416935,50.00954820437795,-9.0,53.0,2.0,1046,1042.58896194901,47.183277917336326,
95,1.896860122680664,0.017219066619873047,58.07515715432971,50.08276512542471,-2.0,-6.0,-24.0,1055,1048.794480974505,203.78488527357214,
96,1.9223248958587646,0.025464773178100586,39.2699354911195,49.93952906025997,-7.0,25.0,-31.0,1093,1070.8972404872525,535.8794127574477,
97,1.939539909362793,0.01721501350402832,58.08883041340627,50.01186081902687,-3.0,32.0,-25.0,1088,1079.4486202436262,516.3095306130393,
98,1.960723876953125,0.02118396759033203,47.20551028676901,49.9815405687248,-7.0,33.0,15.0,1107,1093.2243101218132,583.2990004325676,
99,1.9910240173339844,0.030300140380859375,33.00314742540602,49.723157098106086,-41.0,11.0,52.0,1069,1081.1121550609066,91.77988065904447,
100,2.018174886703491,0.027150869369506836,36.83123315097603,49.54971972886903,-31.0,15.0,69.0,1079,1080.0560775304534,26.441621454707935,
101,2.037601947784424,0.019427061080932617,51.4745897917357,49.5680719729493,-37.0,24.0,72.0,1126,1103.0280387652267,604.4569513631586,
102,2.0561859607696533,0.018584012985229492,53.80969120043106,49.60640814891094,-66.0,-23.0,33.0,1102,1102.5140193826132,288.3988635568458,
103,2.079969882965088,0.02378392219543457,42.045209859959705,49.51994778557515,-58.0,-18.0,39.0,1069,1085.7570096913066,-208.07656276975982,
104,2.1031877994537354,0.02321791648864746,43.07018678824846,49.44874633972872,-30.0,31.0,48.0,1102,1093.8785048456534,70.85887526390589,
105,2.1215851306915283,0.01839733123779297,54.35570991654139,49.49129708774654,-2.0,30.0,72.0,1112,1102.9392524228267,281.6811210978712,
106,2.1422171592712402,0.020632028579711914,48.46833146515363,49.48144474580723,-17.0,1.0,32.0,1041,1071.9696262114135,-609.682493734408,
107,2.168271064758301,0.026053905487060547,38.381961602518345,49.34807355921036,-17.0,-18.0,20.0,1102,1086.9848131057067,-16.6850834515036,
108,2.186521053314209,0.018249988555908203,54.794554908159796,49.39353309052273,-64.0,-49.0,-1.0,1069,1077.9924065528535,-254.70999903415859,
109,2.2052037715911865,0.01868271827697754,53.5254016666454,49.42853871565347,-80.0,-55.0,1.0,1158,1117.9962032764267,943.2546443929666,
110,2.2215569019317627,0.016353130340576172,61.150371774311125,49.514824447822654,-59.0,-42.0,41.0,1107,1112.4981016382135,303.52184258163845,
111,2.24235200881958,0.020795106887817383,48.088235631327315,49.50159455938083,-56.0,-20.0,4.0,1107,1109.7490508191067,85.66241951497004,
112,2.262706995010376,0.0203549861907959,49.128011713030745,49.49823386190858,-56.0,-9.0,-13.0,1069,1089.3745254095534,-457.6487517265053,
113,2.2784759998321533,0.015769004821777344,63.4155427880254,49.594553556115706,-46.0,-9.0,-18.0,1088,1088.6872627047767,-250.61594459394263,
114,2.295875072479248,0.017399072647094727,57.474327527851244,49.65426967979349,-26.0,10.0,-45.0,1074,1081.3436313523885,-336.3431090924504,
115,2.313257932662964,0.01738286018371582,57.52793207971581,49.71343591919078,-21.0,16.0,-49.0,1065,1073.1718156761942,-403.22538314025445,
116,2.3332650661468506,0.02000713348388672,49.98217264883932,49.71574026587651,1.0,-1.0,-60.0,1051,1062.0859078380972,-478.66157133656986,
117,2.3508479595184326,0.01758289337158203,56.873460975212886,49.769275603840946,-19.0,-2.0,-75.0,1032,1047.0429539190486,-667.1032120017535,
118,2.371262788772583,0.02041482925415039,48.984000186859134,49.76251495983681,-14.0,38.0,-67.0,1027,1037.0214769595243,-578.9976206298484,
119,2.3931870460510254,0.021924257278442383,45.61157932511935,49.72448776887738,11.0,66.0,-55.0,1051,1044.010738479762,-130.10318218776038,
120,2.4167020320892334,0.023514986038208008,42.526072453335225,49.65444577222467,8.0,35.0,-64.0,1036,1040.005369239881,-150.21790234265043,
121,2.4338300228118896,0.01712799072265625,58.383964365256126,49.71587944346435,5.0,-16.0,-66.0,1041,1040.5026846199405,-60.59132945748168,
122,2.454073905944824,0.02024388313293457,49.39763747070393,49.7132542359313,2.0,-31.0,-65.0,1041,1040.7513423099704,-24.154113515542022,
123,2.471763849258423,0.017689943313598633,56.52929363720905,49.762035332340666,0.0,-14.0,-64.0,1018,1029.3756711549852,-333.6063842780143,
124,2.4894540309906006,0.017690181732177734,56.52853176635489,49.81011838594106,31.0,25.0,-64.0,1004,1016.6878355774926,-525.415550383296,
125,2.512110948562622,0.022656917572021484,44.136630537724926,49.75894877235515,39.0,16.0,-71.0,999,1007.8439177887462,-457.87814116560355,
126,2.527517080307007,0.015406131744384766,64.90922034108144,49.85129516303617,32.0,-12.0,-64.0,1032,1019.9219588943731,163.04904512408524,
127,2.54366397857666,0.01614689826965332,61.93139904023625,49.927978329537254,9.0,28.0,-55.0,1022,1020.9609794471866,113.69852079569063,
128,2.562124013900757,0.01846003532409668,54.17107727278598,49.95854974448479,-1.0,66.0,-35.0,1004,1012.4804897235933,-172.84937166607264,
129,2.5793650150299072,0.01724100112915039,58.00127222944381,50.01230893972727,-8.0,69.0,-31.0,999,1005.7402448617967,-281.89607439412555,
130,2.597191095352173,0.017826080322265625,56.09758185319923,50.05407581777201,-38.0,28.0,-50.0,1027,1016.3701224308984,157.20717631402238,
131,2.6148881912231445,0.01769709587097168,56.50644644132189,50.09774430880091,-73.0,24.0,-60.0,1008,1012.1850612154492,-39.63788055520554,
132,2.63621187210083,0.021323680877685547,46.89621860953957,50.07184794096521,-67.0,52.0,-78.0,1036,1024.0925306077247,259.3887035756741,
133,2.6581599712371826,0.02194809913635254,45.56203221916856,50.034610948602186,-9.0,31.0,-80.0,1013,1018.5462653038624,3.3447925525203885,
134,2.6760079860687256,0.01784801483154297,56.02864012823938,50.07458897641668,30.0,5.0,-43.0,1046,1032.273132651931,386.2212516427709,
135,2.6958160400390625,0.019808053970336914,50.484515111758405,50.077600991662564,51.0,13.0,0.0,957,994.6365663259655,-756.9212748975667,
136,2.712677001953125,0.0168609619140625,59.308597285067876,50.134977331278336,29.0,-2.0,23.0,1074,1034.3182831629829,798.2728442845963,
137,2.7302749156951904,0.01759791374206543,56.824917695194486,50.178097162467125,-35.0,-35.0,29.0,1018,1026.1591415814914,167.31514772645315,
138,2.747285842895508,0.017010927200317383,58.78574331805631,50.231394871730785,-71.0,-37.0,14.0,1060,1043.0795707907457,580.9975780265089,
139,2.767500877380371,0.02021503448486328,49.468132282870215,50.22581966860044,-144.0,-49.0,-36.0,1069,1056.0397853953727,611.0575942512926,
140,2.7871720790863037,0.019671201705932617,50.83573514974487,50.23012430789529,-128.0,-56.0,-38.0,1004,1030.0198926976864,-355.8413897765362,
141,2.8048319816589355,0.017659902572631836,56.625453956339186,50.270390854786484,-69.0,-47.0,-33.0,1079,1054.5099463488432,515.4595078176601,
142,2.8223960399627686,0.017564058303833008,56.93445004004398,50.31186197450631,-26.0,-47.0,-22.0,1055,1054.7549731744216,264.70498768851223,
143,2.84104585647583,0.018649816513061523,53.61983048464007,50.33357686714148,7.0,-10.0,-19.0,1046,1050.3774865872108,14.992449466741874,
144,2.859375,0.018329143524169922,54.557922942844506,50.36065573770492,-5.0,16.0,-25.0,1046,1048.1887432936055,-52.21041924372147,
