Index,Time,Difference,Hz,AveHz,0x6103 Range,0x6103 Smoothed Range,0x6103 Velocity,
0,0.0,0.0,0,0,269,53.800000000000004,,
1,0.016645193099975586,0.016645193099975586,60.07740456921865,60.07740456921865,325,108.04,651.7196847668839,
2,0.02864813804626465,0.012002944946289062,83.31288733513428,69.81256501801779,264,139.23200000000003,1041.1148641650093,
3,0.04088401794433594,0.012235879898071289,81.7268564525243,73.37830650804759,260,163.3856,1227.6914513343454,
4,0.05477118492126465,0.013887166976928711,72.00892749841194,73.03110213427242,232,177.10848000000001,1179.7871352653578,
5,0.06805014610290527,0.013278961181640625,75.30709566216605,73.47522799494084,241,189.88678400000003,1136.2891005579345,
6,0.0800480842590332,0.01199793815612793,83.3476541541641,74.9549480857553,335,218.90942720000004,1392.8251260610082,
7,0.0940701961517334,0.014022111892700195,71.31593355210583,74.4125162523222,307,236.52754176000005,1365.5505583036763,
8,0.10685110092163086,0.012780904769897461,78.24172216315033,74.87054350396951,339,257.022033408,1413.1453109225051,
9,0.11898112297058105,0.012130022048950195,82.4400809796175,75.64225126892873,288,263.21762672640006,1232.6692917151393,
10,0.13097000122070312,0.01198887825012207,83.41063935567267,76.35336265400635,316,273.77410138112003,1162.2398934305409,
11,0.14237499237060547,0.011404991149902344,87.6809097750648,77.26075918843065,264,271.81928110489605,895.5118306912202,
12,0.15499305725097656,0.012618064880371094,79.25145491648402,77.42282275630376,349,287.2554248839169,961.0768351104631,
13,0.1680140495300293,0.013020992279052734,76.79906251144395,77.37448169580901,260,281.8043399071335,685.1338249109349,
14,0.18001317977905273,0.011999130249023438,83.33937370847242,77.772083228481,339,293.24347192570684,738.7730795680351,
15,0.19101619720458984,0.01100301742553711,90.88416034669555,78.52737212611399,274,289.3947775405655,521.0613921295053,
16,0.20402002334594727,0.013003826141357422,76.90044369476733,78.42367497855612,288,289.1158220324524,412.55875323460515,
17,0.21487998962402344,0.010859966278076172,92.081317233809,79.11392787083145,246,280.49265762596195,171.2405351330167,
18,0.22721219062805176,0.01233220100402832,81.08852585790237,79.22110143053966,335,291.39412610076954,313.7892297681219,
19,0.23819398880004883,0.01098179817199707,91.05976856776883,79.76691643528204,260,285.1153008806157,136.68170952956137,
20,0.250197172164917,0.012003183364868164,83.31123249577912,79.93695463039461,297,287.4922407044926,148.9505248827462,
21,0.2630290985107422,0.012831926345825195,77.93062187621932,79.83907529205311,293,288.5937925635941,136.32934418793414,
22,0.27406811714172363,0.011039018630981445,90.58776268331138,80.27201496270199,283,287.4750340508753,88.7943092203266,
23,0.2860851287841797,0.012017011642456055,83.21536416483146,80.39565040569101,260,281.9800272407002,-20.41835118312845,
24,0.29808902740478516,0.012003898620605469,83.30626837212998,80.51285956060902,255,276.5840217925602,-106.23889654654877,
25,0.3111541271209717,0.013065099716186523,76.5397908720962,80.34603375284945,274,276.06721743404813,-92.902336741699,
26,0.3221571445465088,0.01100301742553711,90.88416034669555,80.70595496678939,250,270.85377394723855,-169.08575615608672,
27,0.3331601619720459,0.01100301742553711,90.88416034669555,81.04210251364165,297,276.0830191577909,-40.21749288326373,
28,0.3452911376953125,0.012130975723266602,82.43359996855408,81.09098943833135,264,273.6664153262327,-72.01586501323936,
29,0.3572981357574463,0.012006998062133789,83.2847640038919,81.16471119705702,307,280.3331322609862,53.43449730774717,
30,0.3702850341796875,0.012986898422241211,77.00067926052395,81.01866732599827,218,267.866505808789,-149.24014313508238,
31,0.381702184677124,0.011417150497436523,87.58752897446071,81.21514951826231,241,262.4932046470312,-213.518948746859,
32,0.39419102668762207,0.012488842010498047,80.07147493413768,81.17891538246126,236,257.19456371762493,-255.66915787027688,
33,0.4071941375732422,0.013003110885620117,76.9046737197235,81.04242412886967,274,260.55565097409993,-152.83866253567538,
34,0.41919803619384766,0.012003898620605469,83.30626837212998,81.107250188256,264,261.24452077928,-110.79349545578312,
35,0.43091511726379395,0.011717081069946289,85.34548784209991,81.22249277825637,269,262.795616623424,-62.15899006296155,
36,0.44410204887390137,0.013186931610107422,75.83265232326885,81.06244970336056,218,253.8364932987392,-185.60600889079114,
37,0.45610618591308594,0.01200413703918457,83.30461379570598,81.12146062200216,302,263.4691946389914,12.004885879184343,
38,0.46793413162231445,0.011827945709228516,84.54553517436001,81.20801076906929,246,259.9753557111931,-49.47378768939582,
39,0.4811680316925049,0.01323390007019043,75.56351451168321,81.05276625052957,250,257.9802845689545,-69.72994759319404,
40,0.49340319633483887,0.012235164642333984,81.73163412447875,81.0696004750945,236,253.5842276551636,-127.64334112822408,
41,0.5059680938720703,0.012564897537231445,79.58680100946852,81.03277755368997,227,248.2673821241309,-186.74481835785554,
42,0.5202641487121582,0.01429605484008789,69.94936793302425,80.72822258455668,316,261.8139056993047,40.11829766835953,
43,0.5312671661376953,0.01100301742553711,90.88416034669555,80.93856112473388,274,264.2511245594438,76.39555607166157,
44,0.5432181358337402,0.011950969696044922,83.67521844950724,80.99876844588053,241,259.600899647555,-16.705272210997187,
45,0.5572330951690674,0.014014959335327148,71.35232975520134,80.75615104366112,241,255.88071971804402,-66.45291878462794,
46,0.5692441463470459,0.012011051177978516,83.25665965302315,80.80891177395718,330,270.7045757744352,193.67461265877142,
47,0.5812921524047852,0.012048006057739258,83.00128628816813,80.85435147466322,250,266.56366061954816,86.19943327385802,
48,0.5933051109313965,0.012012958526611328,83.24344063827253,80.90272461103105,241,261.45092849563855,-16.16073599212531,
49,0.6053071022033691,0.012001991271972656,83.31950735001986,80.95064442765639,269,262.96074279651083,12.230807954038337,
50,0.6183099746704102,0.013002872467041016,76.90608383145697,80.8655885369672,274,265.16859423720865,43.74408796037263,
51,0.6313140392303467,0.013004064559936523,76.89903378985387,80.78388382139511,269,265.93487538976694,46.78052641691977,
52,0.6443591117858887,0.013045072555541992,76.65729690212922,80.70034092616177,246,261.94790031181356,-23.701725324876726,
53,0.6573610305786133,0.01300191879272461,76.9117247955404,80.62540603197769,264,262.35832024945086,-12.648159201068804,
54,0.6711981296539307,0.013837099075317383,72.26948326067853,80.45314433138002,260,261.88665619956066,-16.935910792495687,
55,0.6851990222930908,0.014000892639160156,71.42401743750426,80.26864926913746,246,258.70932495964854,-58.93628101083863,
56,0.6972019672393799,0.012002944946289062,83.31288733513428,80.32105850437561,283,263.56745996771883,33.80002610857548,
57,0.7082061767578125,0.011004209518432617,90.87431480879644,80.48503651994054,260,262.8539679741751,14.072401679890193,
58,0.7202169895172119,0.012010812759399414,83.25831232506899,80.53128549338935,227,255.68317437934007,-108.14771320356324,
59,0.7322120666503906,0.011995077133178711,83.36753393890004,80.57774883430149,246,253.7465395034721,-118.80866531108687,
60,0.7442231178283691,0.012011051177978516,83.25665965302315,80.62098389939702,232,249.39723160277768,-167.46870177173338,
61,0.7562191486358643,0.011996030807495117,83.36090629037066,80.66444774644658,218,243.11778528222214,-238.6670286740353,
62,0.7692751884460449,0.013056039810180664,76.59290370884389,80.5953460233672,232,240.89422822577774,-224.9953612423016,
63,0.7802751064300537,0.010999917984008789,90.90976873225394,80.74075346096859,208,234.31538258062218,-299.61255621909874,
64,0.7942841053009033,0.01400899887084961,71.38268831478267,80.57570279057077,288,245.05230606449774,-86.4039524734471,
65,0.8072841167449951,0.013000011444091797,76.92300920661702,80.5168820391052,227,241.4418448515982,-124.66867020275865,
66,0.8188309669494629,0.011546850204467773,86.60370423902046,80.60271614528891,241,241.3534758812786,-101.26555219610012,
67,0.8302249908447266,0.011394023895263672,87.76530654948733,80.70101567507587,269,246.8827807050229,16.04378481541538,
68,0.844228982925415,0.014003992080688477,71.4082094761394,80.54686746759982,255,248.50622456401834,36.020471683512056,
69,0.8555731773376465,0.011344194412231445,88.15081650238541,80.6476895579086,269,252.6049796512147,101.07809886274276,
70,0.8685770034790039,0.013003826141357422,76.90044369476733,80.59158798773345,213,244.68398372097178,-40.963141217831236,
71,0.8815960884094238,0.013019084930419922,76.81031388492107,80.53574753047991,264,248.54718697677745,26.57625796167155,
72,0.8936541080474854,0.012058019638061523,82.9323578843302,80.56808484583634,232,245.23774958142198,-33.630882924143904,
73,0.9056391716003418,0.011985063552856445,83.4371879289423,80.60605403253788,227,241.5901996651376,-87.77296790835881,
74,0.9188370704650879,0.013197898864746094,75.76963653443168,80.53658518864874,250,243.27215973211008,-44.73007373870021,
75,0.9316020011901855,0.012764930725097656,78.33963391856555,80.50648227910884,227,240.0177277856881,-86.77426045007684,
76,0.9436101913452148,0.012008190155029297,83.27649604892189,80.5417329073715,236,239.2141822285505,-82.80270004288103,
77,0.9546091556549072,0.010998964309692383,90.91765113909783,80.661283776578,311,253.5713457828404,194.82175744087516,
78,0.9656360149383545,0.011026859283447266,90.68765405405405,80.7757776153155,236,250.05707662627236,92.11724084796504,
79,0.9776010513305664,0.011965036392211914,83.57684567101724,80.81006039475596,208,241.6456613010179,-66.90611942435234,
80,0.9894421100616455,0.011841058731079102,84.45190778214034,80.8536438731274,302,253.71652904081432,150.3566663028583,
81,1.0004611015319824,0.011018991470336914,90.75240712292013,80.96266798975654,241,251.17322323265148,74.12310821419031,
82,1.0134680271148682,0.013006925582885742,76.8821189625149,80.91029791382455,250,250.9385785861212,55.69049104566053,
83,1.0254881381988525,0.012020111083984375,83.19390669628689,80.93706490430947,260,252.75086286889697,74.70659474220749,
84,1.036506175994873,0.011018037796020508,90.76026226386514,81.04148527564152,218,245.8006902951176,-66.3946213213019,
85,1.0475091934204102,0.01100301742553711,90.88416034669555,81.14487255472312,227,242.0405522360941,-121.46309511344222,
86,1.0595171451568604,0.012007951736450195,83.27814950858732,81.16904987626963,288,251.2324417888753,55.926234397833,
87,1.0723931789398193,0.012876033782958984,77.66366699996297,81.12696136878569,222,245.38595343110026,-46.07095746921366,
88,1.0843970775604248,0.012003898620605469,83.30626837212998,81.15108553960158,274,251.10876274488024,58.49241173188501,
89,1.095487117767334,0.01109004020690918,90.17099860260132,81.24239761156402,283,257.4870101959042,161.82051778417326,
90,1.109490156173706,0.01400303840637207,71.4130727189144,81.11834025673794,283,262.5896081567234,202.33485407361175,
91,1.1214931011199951,0.012002944946289062,83.31288733513428,81.1418277197796,236,257.2716865253787,73.2576021130307,
92,1.134512186050415,0.013019084930419922,76.81031388492107,81.09212146965139,227,251.21734922030296,-34.40102806318629,
93,1.1465470790863037,0.012034893035888672,83.09172312690677,81.11311057031583,264,253.7738793762424,14.964476726032544,
94,1.159553050994873,0.013005971908569336,76.88775641143151,81.06571744979662,241,251.21910350099392,-27.31461565555535,
95,1.1736760139465332,0.014122962951660156,70.80667161861031,80.94226930697735,293,259.57528280079515,96.4829562090066,
96,1.1875591278076172,0.013883113861083984,72.0299501974927,80.83808018656555,260,259.6602262406361,78.41005931547505,
97,1.1995620727539062,0.012002944946289062,83.31288733513428,80.86284336858976,250,257.7281809925089,30.53519383565905,
98,1.2115659713745117,0.012003898620605469,83.30626837212998,80.88705222450231,236,253.38254479400712,-47.97559201147914,
99,1.2266809940338135,0.015115022659301758,66.15934507942016,80.70557910451416,274,257.5060358352057,16.181019736127517,
100,1.2412190437316895,0.014538049697875977,68.78501730160552,80.56595691551176,246,255.20482866816457,-18.712899170998504,
101,1.2522211074829102,0.011002063751220703,90.89203831317991,80.65668227156793,255,255.16386293453166,-15.715011142976653,
102,1.2645351886749268,0.012314081192016602,81.20784526321904,80.66204951313622,255,255.13109034762533,-13.104287147654299,
103,1.2765471935272217,0.012012004852294922,83.25004962089635,80.6864019773536,227,249.5048722781003,-104.16001641131206,
104,1.288560152053833,0.012012958526611328,83.24344063827253,80.71024067773216,227,245.00389782248024,-158.26333311120743,
105,1.3002800941467285,0.011719942092895508,85.32465366071973,80.75183221881377,260,248.0031182579842,-75.42917750666031,
106,1.3135261535644531,0.01324605941772461,75.49415025738867,80.69881190591666,222,242.80249460638737,-138.86667468248433,
107,1.3265490531921387,0.013022899627685547,76.78781443374464,80.66041714968682,246,243.44199568510993,-101.27216171336197,
108,1.338541030883789,0.01199197769165039,83.38908107678238,80.68486322656213,264,247.55359654808797,-12.445205827040795,
109,1.3496229648590088,0.011081933975219727,90.23695703620834,80.7632967414621,293,256.6428772384704,154.08164156798327,
110,1.3636281490325928,0.014005184173583984,71.40213135405672,80.66715260904374,222,249.71430179077635,24.32230241183771,
111,1.376634120941162,0.013005971908569336,76.88775641143151,80.63144615659587,227,245.1714414326211,-50.40022619632773,
112,1.3878960609436035,0.011261940002441406,88.79464814971632,80.69768562053082,218,239.7371531460969,-136.82732422627055,
113,1.3994581699371338,0.011562108993530273,86.48941127951335,80.74553597059365,222,236.18972251687754,-170.82489671623546,
114,1.4114601612091064,0.012001991271972656,83.31950735001986,80.76742307933338,236,236.15177801350205,-137.29222083856567,
115,1.4234650135040283,0.012004852294921875,83.29965046075628,80.78877872587387,218,232.52142241080165,-170.31524722149092,
116,1.434467077255249,0.011002063751220703,90.89203831317991,80.86626862287963,236,233.2171379286413,-123.60519747668152,
117,1.447472095489502,0.01300501823425293,76.89339468715053,80.83057377381309,255,237.57371034291305,-31.885829554595418,
118,1.4604771137237549,0.01300501823425293,76.89339468715053,80.79551462407878,213,232.65896827433045,-101.09090397668919,
119,1.47147798538208,0.011000871658325195,90.9018876920743,80.87107057133497,218,229.72717461946436,-134.1738386915459,
120,1.482483148574829,0.011005163192749023,90.86643991420958,80.94527085542985,203,224.3817396955715,-204.48319921868247,
121,1.4944851398468018,0.012001991271972656,83.31950735001986,80.96433800098113,213,222.1053917564572,-201.51939714379307,
122,1.5087451934814453,0.014260053634643555,70.12596345153901,80.86189803758958,213,220.28431340516576,-186.75649249604507,
123,1.5202820301055908,0.011536836624145508,86.6788732976503,80.90604082944864,194,215.02745072413262,-240.53698085131964,
124,1.5322849750518799,0.012002944946289062,83.31288733513428,80.92489453262544,166,205.22196057930609,-355.8143238213963,
125,1.544288158416748,0.012003183364868164,83.31123249577912,80.94344265914327,203,204.77756846344488,-292.05603003387785,
126,1.5583820343017578,0.014093875885009766,70.95280305849714,80.85308815591874,218,207.42205477075592,-196.11808079639576,
127,1.5702691078186035,0.011887073516845703,84.12499498575956,80.8778567747707,161,198.13764381660474,-313.1046696298565,
128,1.5821290016174316,0.011859893798828125,84.31778706979736,80.9036430462648,222,202.91011505328382,-170.00289299767738,
129,1.5945630073547363,0.012434005737304688,80.42460500076699,80.89990762673065,171,196.52809204262707,-238.65665034571694,
130,1.6065661907196045,0.012003183364868164,83.31123249577912,80.91792342634268,185,194.22247363410168,-229.34210253241497,
131,1.61857008934021,0.012003898620605469,83.30626837212998,80.93563625249033,218,198.97797890728134,-104.2410023194151,
132,1.630573034286499,0.012002944946289062,83.31288733513428,80.95313563048106,194,197.9823831258251,-99.98199368989191,
133,1.644577980041504,0.014004945755004883,71.40334689569465,80.87181125740447,180,194.3859065006601,-131.3456885656962,
134,1.656581163406372,0.012003183364868164,83.31123249577912,80.88948670915725,171,189.70872520052808,-183.00889859659884,
135,1.6685841083526611,0.012002944946289062,83.31288733513428,80.9069194200112,175,186.76698016042246,-195.42417349628093,
136,1.6814019680023193,0.012817859649658203,78.01614523269224,80.88488213296323,189,187.213584128338,-149.37087479254575,
137,1.6935601234436035,0.01215815544128418,82.2493185606432,80.89467749242395,171,183.9708673026704,-172.83894967329502,
138,1.7055630683898926,0.012002944946289062,83.31288733513428,80.91169570778554,208,188.77669384213632,-58.19370273169142,
139,1.7175660133361816,0.012002944946289062,83.31288733513428,80.92847606480517,147,180.42135507370907,-185.7764416775251,
140,1.729367971420288,0.011801958084106445,84.73170238985071,80.95443093295026,199,184.13708405896728,-85.65314483397196,
141,1.7426891326904297,0.013321161270141602,75.06853041719614,80.9094389555978,213,189.90966724717381,18.145351462757958,
142,1.7536921501159668,0.01100301742553711,90.88416034669555,80.97202236470633,222,196.32773379773906,131.17639906967332,
143,1.7656960487365723,0.012003898620605469,83.30626837212998,80.98789149034023,152,187.46218703819127,-42.77000426757232,
144,1.7776410579681396,0.011945009231567383,83.7169717171314,81.00622977542685,213,192.56974963055302,51.30193120358745,
145,1.790696144104004,0.013055086135864258,76.59849882206841,80.97409517378085,213,196.65579970444242,103.63860531721585,
146,1.803699016571045,0.013002872467041016,76.90608383145697,80.94476886590313,250,207.32463976355393,247.01062584786,
147,1.8157031536102295,0.01200413703918457,83.30461379570598,80.96037048110782,255,216.85971181084315,356.47159956101996,
148,1.828706979751587,0.013003826141357422,76.90044369476733,80.93150058414741,194,212.28776944867454,214.86040040928214,
149,1.8397631645202637,0.011056184768676758,90.44711362215082,80.98868532290308,283,226.43021555893964,427.7170063734842,
150,1.8507521152496338,0.010988950729370117,91.00049901282246,81.04813106198593,241,229.34417244715172,395.2079112846176,
151,1.8617730140686035,0.011020898818969727,90.7367009194159,81.10548324578727,218,227.0753379577214,274.9930177270749,
152,1.8727731704711914,0.01100015640258789,90.90779834409814,81.1630593585216,269,235.46027036617713,372.44556308501745,
153,1.885193109512329,0.012419939041137695,80.51569308736299,81.15879441102922,278,243.96821629294172,434.96108307666555,
154,1.8972680568695068,0.012074947357177734,82.81609603917387,81.1693421192681,274,249.9745730343534,447.4534698097903,
155,1.9112770557403564,0.01400899887084961,71.38268831478267,81.09760933637058,302,260.3796584274827,506.51136934912165,
156,1.9244661331176758,0.013189077377319336,75.8203149008478,81.0614420879814,349,278.1037267419862,673.977983665256,
157,1.9351441860198975,0.01067805290222168,93.6500323754661,81.1309054561507,250,272.48298139358894,433.9057901618745,
158,1.9471471309661865,0.012002944946289062,83.31288733513428,81.14435601052881,382,294.38638511487113,712.0917934269285,
159,1.959177017211914,0.012029886245727539,83.12630556711656,81.15652572643556,377,310.9091080918969,844.3680185393548,
160,1.9719600677490234,0.012783050537109375,78.22858848105044,81.13754564139765,363,321.3272864735175,838.4942926990793,
161,1.9851460456848145,0.013185977935791016,75.83813691100423,81.10234526571567,415,340.06182917881404,954.9539970891301,
162,1.9971489906311035,0.012002944946289062,83.31288733513428,81.11563071156131,429,357.84946334305124,1060.35102988804,
163,2.0081541538238525,0.011005163192749023,90.86643991420958,81.16906746905931,438,373.879570674441,1139.6005808396442,
164,2.0221831798553467,0.01402902603149414,71.28078583324836,81.10046687844147,457,390.5036565395528,1148.6760455166284,
