Index,Time,Difference,Hz,AveHz,0x6103 Linear-Acceleration-X,0x6103 Linear-Acceleration-Y,0x6103 Linear-Acceleration-Z,0x6103 Range,0x6103 Smoothed Range,0x6103 Velocity,
0,9.5367431640625e-07,9.5367431640625e-07,1048576.0,0.0,-17.0,-7.0,109.0,980,949.5,15990784.0,
1,0.028378963470458984,0.028378009796142578,35.23855292121049,35.23736873057212,-28.0,-9.0,68.0,1004,976.75,7995872.125283551,
2,0.05412602424621582,0.025747060775756836,38.83938476354511,36.95080190819351,-41.0,0.0,57.0,1046,1011.375,3998608.4694904946,
3,0.08143496513366699,0.027308940887451172,36.61804403624871,36.83921267818821,-25.0,35.0,18.0,924,967.6875,1998504.3593458305,
4,0.10763406753540039,0.0261991024017334,38.16924658967849,37.16295492302581,13.0,46.0,-1.0,990,978.84375,999465.0925015484,
5,0.13608694076538086,0.02845287322998047,35.14583542818837,36.74121831146306,20.0,11.0,11.0,1013,995.921875,500032.6587361102,
6,0.1614089012145996,0.02532196044921875,39.49141307622778,37.172671115719695,6.0,-1.0,19.0,1112,1053.9609375,251162.35166392734,
7,0.18886280059814453,0.027453899383544922,36.42469821971342,37.063942596585484,-34.0,-21.0,22.0,929,991.48046875,124443.25972254117,
8,0.21641302108764648,0.027550220489501953,36.297350156636725,36.96635239318631,-21.0,-16.0,50.0,938,964.740234375,61736.33003608063,
9,0.24512910842895508,0.028716087341308594,34.82368569625718,36.715345875002185,55.0,-2.0,68.0,878,921.3701171875,30113.011353266644,
10,0.27332282066345215,0.02819371223449707,35.468901423219705,36.58677301707346,84.0,-3.0,61.0,924,922.68505859375,15079.825440191118,
11,0.30199503898620605,0.028672218322753906,34.87696657242641,36.42443941108065,79.0,-32.0,12.0,1102,1012.342529296875,9103.403024436155,
12,0.32982397079467773,0.02782893180847168,35.93382623818785,36.38304387363722,47.0,-20.0,-60.0,1177,1094.6712646484375,6030.894747484477,
13,0.35706210136413574,0.027238130569458008,36.713239091426324,36.40823249046659,32.0,3.0,-88.0,1139,1116.8356323242188,3422.3102386378578,
14,0.3850111961364746,0.027949094772338867,35.779334112448495,36.362578908062275,-11.0,29.0,-74.0,1126,1121.4178161621094,1793.128862569204,
15,0.413776159286499,0.028764963150024414,34.76451524670739,36.25148443995775,-38.0,34.0,-58.0,1121,1121.2089080810547,892.9331372001091,
16,0.4392569065093994,0.02548074722290039,39.24531691524599,36.425152941010445,-8.0,-21.0,-34.0,1041,1081.1044540405273,-340.48943566665207,
17,0.46633005142211914,0.027073144912719727,36.936972162778616,36.45486699421758,31.0,-36.0,-1.0,1055,1068.0522270202637,-411.2995908881991,
18,0.4990708827972412,0.03274083137512207,30.54290187511378,36.06702097928824,46.0,-23.0,0.0,1097,1082.5261135101318,15.387451961689635,
19,0.5255410671234131,0.026470184326171875,37.7783542297161,36.15321653928564,38.0,-13.0,-19.0,869,975.7630567550659,-2008.9725623892373,
20,0.5534708499908447,0.02792978286743164,35.80407354924624,36.135597747073454,20.0,17.0,-48.0,883,929.381528377533,-1834.8101078724394,
21,0.5802700519561768,0.02679920196533203,37.31454396640689,36.190046219352304,27.0,29.0,-78.0,910,919.6907641887665,-1098.2082771311239,
22,0.6071531772613525,0.02688312530517578,37.1980559792827,36.234678206303734,49.0,-14.0,-129.0,952,935.8453820943832,-248.6439479770345,
23,0.6326940059661865,0.025540828704833984,39.15299740492504,36.35248600921502,45.0,-37.0,-122.0,947,941.4226910471916,-15.137792510631385,
24,0.662161111831665,0.029467105865478516,33.9361457675939,36.24495545141783,23.0,-35.0,-82.0,883,912.2113455235958,-503.2291361334651,
25,0.6866390705108643,0.02447795867919922,40.853079830132074,36.40923022542225,31.0,-21.0,-53.0,902,907.1056727617979,-355.9057965288629,
26,0.7120020389556885,0.02536296844482422,39.427561571724006,36.516749359503045,103.0,0.0,0.0,905,906.052836380899,-198.70828388085368,
27,0.7362930774688721,0.024291038513183594,41.16744532998312,36.67018042980509,121.0,14.0,35.0,910,908.0264181904495,-58.73048131596667,
28,0.761336088180542,0.025043010711669922,39.931301052952264,36.77745010999679,88.0,-5.0,15.0,915,911.5132090952247,40.25080800565506,
29,0.7858591079711914,0.024523019790649414,40.7780121916836,36.90228910735371,28.0,-34.0,-32.0,919,915.2566045476124,96.4495167007054,
30,0.8173000812530518,0.03144097328186035,31.805631175449108,36.706224174118766,-19.0,-26.0,-53.0,,915.2566045476124,96.4495167007054,
31,0.8657472133636475,0.0484471321105957,20.641056682512968,35.807218921972776,12.0,9.0,-67.0,897,906.1283022738062,-45.98414397402003,
32,0.8945510387420654,0.02880382537841797,34.71761083336092,35.772134416163674,77.0,-90.0,9.0,961,933.5641511369031,453.26148986894304,
33,0.9228541851043701,0.028303146362304688,35.33176090033021,35.75862853812368,32.0,-109.0,30.0,919,926.2820755684515,97.98646851313842,
34,0.9489059448242188,0.026051759719848633,38.38512295344517,35.83073768844221,34.0,-68.0,62.0,975,950.6410377842258,516.5041140919786,
35,0.9776248931884766,0.028718948364257812,34.82021651059308,35.801052370760715,-79.0,124.0,119.0,938,944.3205188921129,148.211138904657,
36,1.0035600662231445,0.02593517303466797,38.55767604339033,35.87229226396429,-68.0,35.0,53.0,915,929.6602594460564,-208.52719776422015,
37,1.0300240516662598,0.026463985443115234,37.78720337303375,35.92149128959218,33.0,-31.0,1.0,933,931.3301297230282,-72.71373500085168,
38,1.0579619407653809,0.027937889099121094,35.7936849291688,35.91811627222522,37.0,19.0,4.0,910,920.6650648615141,-227.2278532015185,
39,1.0841901302337646,0.02622818946838379,38.126916888618204,35.97155048034898,-23.0,-22.0,-86.0,897,908.832532430757,-339.18291688543616,
40,1.112928867340088,0.028738737106323242,34.79624022100731,35.94120089238087,-30.0,-47.0,-171.0,859,883.9162662153785,-603.0876507631581,
41,1.1405460834503174,0.027617216110229492,36.20929770794665,35.947692596487684,58.0,-40.0,-163.0,878,880.9581331076893,-355.099786559606,
42,1.1677229404449463,0.027176856994628906,36.7960136154683,35.967435891938905,67.0,40.0,-128.0,850,865.4790665538446,-462.3338651148065,
43,1.1938331127166748,0.026110172271728516,38.299249411034204,36.01843468904094,51.0,111.0,-70.0,897,881.2395332769223,70.64009037332534,
44,1.223330020904541,0.02949690818786621,33.901858243277104,35.96739984151293,41.0,46.0,-28.0,915,898.1197666384612,321.45568445482706,
45,1.2522010803222656,0.02887105941772461,34.63676152410524,35.93672031365668,-33.0,-31.0,-63.0,1004,951.0598833192306,1077.5649404924711,
46,1.2793641090393066,0.027163028717041016,36.81474589660318,35.95536225769384,-42.0,-36.0,-75.0,1018,984.5299416596154,1154.87831671911,
47,1.3065409660339355,0.027176856994628906,36.7960136154683,35.972848323823044,-19.0,-5.0,-40.0,1134,1059.2649708298077,1952.4147338089633,
48,1.3325390815734863,0.02599811553955078,38.46432632698727,36.02145757955611,23.0,50.0,-28.0,1195,1127.1324854149038,2281.4464809058354,
49,1.3603098392486572,0.0277707576751709,36.0091003528533,36.021205306479494,60.0,60.0,-22.0,1359,1243.066242707452,3228.058390768269,
50,1.3894970417022705,0.02918720245361328,34.2615912432609,35.9842435783419,25.0,25.0,2.0,1088,1165.533121353726,285.82513956638513,
51,1.4160099029541016,0.026512861251831055,37.71754359144987,36.01669726574865,-3.0,28.0,70.0,1396,1280.766560676863,2316.0737052147488,
52,1.4406890869140625,0.024679183959960938,40.519978359996905,36.093839033224945,6.0,5.0,85.0,1369,1324.8832803384316,2051.841115607779,
53,1.4684090614318848,0.027719974517822266,36.07506923778233,36.09348470535743,-29.0,-22.0,92.0,1359,1341.9416401692158,1333.6113137931616,
54,1.4981889724731445,0.029779911041259766,33.57968392230958,36.04351720121072,-5.0,-30.0,62.0,1378,1359.970820084608,969.5127383652421,
55,1.5276410579681396,0.029452085494995117,33.953452979414074,36.00322190420407,17.0,-32.0,55.0,1327,1343.485410042304,204.8880718237561,
56,1.5563960075378418,0.02875494956970215,34.776621589128325,35.98056004306374,65.0,-17.0,60.0,1359,1351.242705021152,237.330291929199,
57,1.5857582092285156,0.029362201690673828,34.057391558536466,35.944950288310956,19.0,31.0,-14.0,1350,1350.621352510576,108.08432309031427,
58,1.612536907196045,0.026778697967529297,37.34311508395805,35.96816900200637,69.0,35.0,0.0,1447,1398.810676255288,953.8118927536043,
59,1.6389868259429932,0.026449918746948242,37.807299506936246,35.9978488332597,17.0,23.0,-18.0,1391,1394.905338127644,403.08080224295554,
60,1.6659801006317139,0.026993274688720703,37.04626472822343,36.0148359378656,-48.0,15.0,-12.0,1382,1388.452669063822,82.01675795049431,
61,1.694277048110962,0.028296947479248047,35.339500867836136,36.003556837420476,-63.0,3.0,10.0,1369,1378.726334531911,-130.8535248404174,
62,1.7208759784698486,0.02659893035888672,37.5954967552257,36.02816285176375,-58.0,2.0,41.0,1377,1377.8631672659556,-81.65236349343323,
63,1.7464208602905273,0.02554488182067871,39.146785137619815,36.07377891118386,-44.0,-5.0,72.0,1405,1391.431583632978,224.75375834207716,
64,1.770231008529663,0.023810148239135742,41.998898535051616,36.15347358148346,-57.0,8.0,66.0,1386,1388.715791816489,55.34674669951721,
65,1.7954270839691162,0.025196075439453125,39.688720666162,36.20308537192485,-81.0,25.0,28.0,1443,1415.8578959082445,566.2910671445475,
66,1.823897123336792,0.02847003936767578,35.12464408937125,36.18625149167076,-64.0,27.0,29.0,1400,1407.9289479541221,143.8947961264258,
67,1.8496410846710205,0.025743961334228516,38.84406082720554,36.22324382566183,19.0,14.0,28.0,1400,1403.964473977061,-5.050736093203767,
68,1.8814539909362793,0.03181290626525879,31.433783247022852,36.1422603622429,-22.0,3.0,13.0,1433,1418.4822369885305,225.64873982048664,
69,1.9104359149932861,0.028981924057006836,34.504265418438784,36.117411454883836,-33.0,-11.0,36.0,1391,1404.7411184942653,-124.23922992592998,
70,1.9365479946136475,0.026112079620361328,38.296451854421946,36.14679326032682,-15.0,-3.0,63.0,1419,1411.8705592471326,74.39652730760443,
71,1.962697982788086,0.026149988174438477,38.24093507535489,36.17469453916789,-8.0,0.0,66.0,1382,1396.9352796235662,-248.37126555473515,
72,1.9880239963531494,0.025326013565063477,39.48509296305013,36.21686666362051,-3.0,-17.0,79.0,1382,1389.467639811783,-271.61585886878254,
73,2.025853157043457,0.03782916069030762,26.434633540685837,36.034201070395774,35.0,-9.0,91.0,1415,1402.2338199058916,32.92671681668628,
74,2.052384853363037,0.026531696319580078,37.69076759943207,36.055615923467585,58.0,-4.0,31.0,1405,1403.6169099529457,42.528221174645175,
75,2.0872700214385986,0.03488516807556152,28.66547748412715,35.93210232967756,22.0,5.0,-13.0,1396,1399.8084549764728,-33.321479601374364,
76,2.113813877105713,0.026543855667114258,37.6735020164731,35.95396965794411,-17.0,19.0,-40.0,1419,1409.4042274882363,164.09243773508194,
77,2.1449718475341797,0.031157970428466797,32.09451662764183,35.8979070464341,-44.0,38.0,-28.0,1400,1404.7021137441182,6.590184994709389,
78,2.174093008041382,0.02912116050720215,34.33929083123879,35.87702996674894,-30.0,25.0,11.0,1419,1411.851056872059,126.03991110052743,
79,2.200021982192993,0.025928974151611328,38.56689409125182,35.90873211241844,-5.0,1.0,34.0,1378,1394.9255284360295,-263.3625757651463,
80,2.2265450954437256,0.026523113250732422,37.70296460097442,35.93010541924681,-3.0,-13.0,33.0,1359,1376.9627642180149,-470.3060196063008,
81,2.2561168670654297,0.0295717716217041,33.81603282997267,35.90239547535412,-13.0,-22.0,25.0,1368,1372.4813821090074,-310.92429206407405,
82,2.2837870121002197,0.02767014503479004,36.140034638151946,35.9052746887246,24.0,-12.0,23.0,1363,1367.7406910545037,-241.12651549130766,
83,2.3146750926971436,0.030888080596923828,32.37494789817374,35.858164397183444,29.0,-4.0,13.0,1386,1376.8703455272519,27.22278619612115,
84,2.344182014465332,0.029506921768188477,33.89035318072737,35.83339496748036,-1.0,-6.0,-24.0,1419,1397.9351727636258,370.5586104639199,
85,2.3702619075775146,0.026079893112182617,38.34371543236399,35.861015919068954,-24.0,-5.0,-18.0,1452,1424.967586381813,703.5408928448235,
86,2.3988468647003174,0.028584957122802734,34.98343536790832,35.85055856024548,-17.0,16.0,27.0,1447,1435.9837931909065,544.4628258751295,
87,2.4255149364471436,0.026668071746826172,37.498024210131064,35.86867212924124,-37.0,56.0,48.0,1443,1439.4918965954532,338.0048861352338,
88,2.4529409408569336,0.02742600440979004,36.461745759912375,35.8753032061413,-19.0,18.0,29.0,1415,1427.2459482977265,-54.25188364275493,
89,2.4779272079467773,0.02498626708984375,40.02198473282443,35.917116416727126,15.0,-48.0,42.0,1372,1399.6229741488632,-579.8890666518819,
90,2.5014560222625732,0.0235288143157959,42.501079169495476,35.97904548351595,-9.0,-53.0,29.0,1400,1399.8114870744316,-285.93853193891357,
91,2.526926040649414,0.02547001838684082,39.26184837450505,36.01213432293935,7.0,-14.0,30.0,1424,1411.9057435372158,94.45216575264848,
92,2.5529298782348633,0.02600383758544922,38.4558623977702,36.0370258440511,27.0,21.0,18.0,1419,1415.452871768608,115.4300204631566,
93,2.5823779106140137,0.02944803237915039,33.95812620431692,36.01331920388342,10.0,35.0,19.0,1419,1417.226435884304,87.82846726770438,
94,2.6089141368865967,0.026536226272583008,37.684333474092774,36.030315705283,29.0,14.0,7.0,1405,1411.113217942152,-71.27203813207949,
95,2.6385021209716797,0.029587984085083008,33.79750364622364,36.00527710207578,40.0,-14.0,-7.0,1433,1422.056608971076,149.29363003501518,
96,2.6688389778137207,0.030336856842041016,32.96320397353075,35.97069766968181,-8.0,14.0,26.0,1433,1427.528304485538,164.82912267963968,
97,2.6971750259399414,0.028336048126220703,35.290736222128736,35.963554113881194,-10.0,24.0,40.0,1447,1437.264152242769,254.20717888943923,
98,2.7239630222320557,0.026787996292114258,37.330152994472975,35.97699352016069,3.0,11.0,61.0,1438,1437.6320761213844,133.97091678423894,
99,2.75372314453125,0.029760122299194336,33.602012449628674,35.95132655096749,12.0,14.0,66.0,1443,1440.3160380606923,112.07871964159612,
100,2.781048059463501,0.027324914932250977,36.596637262344146,35.95766698806753,7.0,19.0,30.0,1415,1427.6580190303462,-175.58110563591586,
101,2.8085410594940186,0.027493000030517578,36.372894878332204,35.961731682212246,29.0,-19.0,-3.0,1429,1428.329009515173,-75.58761963347264,
102,2.834949016571045,0.026407957077026367,37.86737448425919,35.979483018489,46.0,-43.0,-1.0,1429,1428.6645047575867,-31.441647825655302,
103,2.863985061645508,0.02903604507446289,34.43995204703332,35.96387473502434,-44.0,4.0,-1.0,1475,1451.8322523787933,383.2272346432364,
104,2.8910880088806152,0.027102947235107422,36.89635637502419,35.97261642694412,-78.0,29.0,15.0,1527,1489.4161261893967,884.9676183565978,
105,2.920520067214966,0.029432058334350586,33.976556740949555,35.95250078186552,-51.0,48.0,47.0,1485,1487.2080630946984,404.97261866599354,
106,2.947874069213867,0.027354001998901367,36.557721975751974,35.95811676862704,14.0,39.0,39.0,1438,1462.6040315473492,-247.247363062315,
107,2.9752309322357178,0.027356863021850586,36.553898712775506,35.96359490642817,45.0,-28.0,44.0,1443,1452.8020157736746,-302.7746274171223,
108,3.003451108932495,0.028220176696777344,35.43563921462607,35.95863427868017,47.0,-30.0,21.0,1429,1440.9010078868373,-362.24722459275426,
109,3.0315980911254883,0.028146982192993164,35.52778742471857,35.95463406547188,35.0,-19.0,24.0,1438,1439.4505039434187,-206.8902101766241,
110,3.057504892349243,0.025906801223754883,38.59990244890071,35.977047910945835,32.0,6.0,33.0,1433,1436.2252519717094,-165.6923108288622,
111,3.085576057434082,0.028071165084838867,35.62374404402959,35.973833713341,1.0,29.0,-23.0,1461,1448.6126259858547,137.79616521435634,
112,3.114211082458496,0.028635025024414062,34.92226736828082,35.964164610056635,2.0,4.0,-25.0,1490,1469.3063129929274,430.23331785543303,
113,3.1418299674987793,0.027618885040283203,36.207109683879764,35.96630026734377,-10.0,7.0,29.0,1466,1467.6531564964637,185.1886496316771,
114,3.1710708141326904,0.029240846633911133,34.19873618981614,35.95000133454282,-19.0,26.0,26.0,1490,1478.8265782482317,283.6527762289729,
115,3.1983721256256104,0.027301311492919922,36.62827700637499,35.955791097168124,14.0,0.0,1.0,1490,1484.4132891241159,244.14218487269247,
116,3.2255380153656006,0.027165889739990234,36.81086868757789,35.962992668946086,29.0,-22.0,29.0,1471,1477.706644562058,-1.3676137177380951,
117,3.2546260356903076,0.02908802032470703,34.37841382249762,35.94883059281625,17.0,-3.0,-7.0,1466,1471.853322281029,-101.29777466569978,
118,3.2808780670166016,0.026252031326293945,38.09229036681833,35.965981542039096,18.0,-1.0,-11.0,1471,1471.4266611405146,-58.77513735920604,
119,3.307394027709961,0.026515960693359375,37.713134800748094,35.97998877756805,29.0,24.0,0.0,1452,1461.7133305702573,-212.5476412597737,
120,3.3365511894226074,0.029157161712646484,34.29689109850033,35.965280670777325,22.0,13.0,-12.0,1466,1463.8566652851287,-69.51896197809799,
121,3.364286184310913,0.027734994888305664,36.05553215449286,35.966024699169196,19.0,0.0,-14.0,1485,1474.4283326425643,155.82406517726324,
122,3.3921289443969727,0.02784276008605957,35.91597948296384,35.96561392558981,-3.0,-17.0,-3.0,1480,1477.2141663212822,127.94000521252136,
123,3.418598175048828,0.02646923065185547,37.77971536660061,35.97965999564812,-25.0,-10.0,22.0,1499,1488.1070831606412,269.73565145777815,
124,3.446345806121826,0.027747631072998047,36.039112577546355,35.98013866737802,-27.0,12.0,38.0,1480,1484.0535415803206,61.82480505341948,
125,3.4740829467773438,0.027737140655517578,36.05274286991353,35.98071834063533,-18.0,19.0,39.0,1475,1479.5267707901603,-50.68884913763253,
126,3.499842882156372,0.02575993537902832,38.81997315933176,36.001616141798664,37.0,5.0,39.0,1457,1468.2633853950801,-243.96658392892664,
127,3.5270519256591797,0.027209043502807617,36.75248635244429,36.00740864518592,29.0,-7.0,20.0,1461,1464.63169269754,-188.72016011576991,
128,3.553054094314575,0.026002168655395508,38.458330658989006,36.025345126273024,1.0,-24.0,-22.0,1485,1474.81584634877,101.47269424259109,
129,3.579448938369751,0.02639484405517578,37.88618708675073,36.03906696843472,8.0,-23.0,-18.0,1447,1460.907923174385,-212.72274256516008,
130,3.6072659492492676,0.0278170108795166,35.949225613466695,36.038374167298414,-33.0,16.0,-18.0,1457,1458.9539615871925,-141.48307425159453,
131,3.636167049407959,0.028901100158691406,34.60075895066821,36.026947667690195,2.0,29.0,10.0,1504,1481.4769807935963,318.9152420752284,
132,3.6646671295166016,0.028500080108642578,35.08762067292409,36.01964253091981,15.0,34.0,28.0,1513,1497.2384903967982,435.97455613251225,
133,3.6909050941467285,0.026237964630126953,38.112712403452974,36.03452177920257,-2.0,-17.0,43.0,1527,1512.119245198399,501.5602421161149,
134,3.7207579612731934,0.029852867126464844,33.49762003641823,36.01416738060193,8.0,-25.0,40.0,1504,1508.0596225991994,182.7862733984341,
135,3.7468039989471436,0.026046037673950195,38.39355576914275,36.030707781334485,24.0,-5.0,23.0,1494,1501.0298112995997,-43.55658938964871,
136,3.7735800743103027,0.02677607536315918,37.34677268558505,36.0400461423511,33.0,-4.0,23.0,1522,1511.5149056497999,174.01392294709404,
137,3.802726984024048,0.029146909713745117,34.308954527979324,36.026777776990585,7.0,-3.0,-9.0,1565,1538.2574528249,545.7613789699722,
138,3.8294970989227295,0.02677011489868164,37.35508808179405,36.03606333552794,-20.0,0.0,-19.0,1527,1532.6287264124499,167.74990402228943,
139,3.8559319972991943,0.026434898376464844,37.828781702081606,36.048353575052566,-1.0,-1.0,-15.0,1574,1553.314363206225,475.131171331277,
140,3.882654905319214,0.02672290802001953,37.42107704935584,36.057801533739415,2.0,20.0,-1.0,1597,1575.1571816031123,646.2564807681442,
141,3.9133479595184326,0.03069305419921875,32.58066119811086,36.03052973018814,-5.0,17.0,15.0,1597,1586.0785908015562,501.041606834287,
142,3.941300868988037,0.027952909469604492,35.77445135317247,36.02871354412984,-6.0,-20.0,44.0,1565,1575.539295400778,62.00204811121645,
143,3.9702789783477783,0.02897810935974121,34.50880758250167,36.017620116838515,-14.0,-11.0,47.0,1569,1572.269647700389,-25.414797622038073,
