Index,Time,Difference,Hz,AveHz,0x6103 Linear-Acceleration-X,0x6103 Linear-Acceleration-Y,0x6103 Linear-Acceleration-Z,0x6103 Range,0x6103 Smoothed Range,0x6103 Velocity,
0,9.5367431640625e-07,9.5367431640625e-07,1048576.0,0.0,-92.0,235.0,-169.0,1377,1366.0,5767168.0,
1,0.02814006805419922,0.028139114379882812,35.537721141462754,35.53651675873522,-95.0,235.0,-140.0,1396,1381.0,2883850.532908561,
2,0.055329084396362305,0.027189016342163086,36.779557870553056,36.14735399690606,-98.0,231.0,-89.0,1410,1395.5,1442191.918248842,
3,0.0826258659362793,0.027296781539916992,36.63435553886332,36.30824277610097,-92.0,224.0,-41.0,1386,1390.75,721008.9525300162,
4,0.11024689674377441,0.027621030807495117,36.204296898602514,36.282200389698296,-93.0,213.0,11.0,1424,1407.375,360805.4244829777,
5,0.13811302185058594,0.027866125106811523,35.885864868795935,36.20223446713897,-89.0,200.0,77.0,1438,1422.6875,180677.46339439056,
6,0.16749072074890137,0.02937769889831543,34.039425737913795,35.82288005671118,-91.0,199.0,91.0,1419,1420.84375,90307.35160159314,
7,0.19479775428771973,0.02730703353881836,36.62060174271395,35.934705847074994,-90.0,196.0,155.0,1424,1422.421875,45182.57174435918,
8,0.22255802154541016,0.02776026725769043,36.02270794864087,35.945682588518615,-94.0,197.0,199.0,1490,1456.2109375,23199.872637327528,
9,0.2521669864654541,0.029608964920043945,33.77355482369614,35.69063550368028,-96.0,196.0,248.0,1466,1461.10546875,11682.589178417848,
10,0.2810239791870117,0.028856992721557617,34.653645639691,35.58415203189955,-95.0,192.0,267.0,1485,1473.052734375,6048.30274387493,
11,0.31020069122314453,0.029176712036132812,34.27390991697718,35.46091388973434,-95.0,187.0,295.0,1494,1483.5263671875,3203.6375456970254,
12,0.33791494369506836,0.027714252471923828,36.0825175065811,35.511895001686284,-95.0,182.0,306.0,1447,1465.26318359375,1272.3279519748182,
13,0.36618876457214355,0.028273820877075195,35.36840685055106,35.5008161301433,-89.0,179.0,323.0,1480,1472.631591796875,766.4684055719406,
14,0.39319396018981934,0.02700519561767578,37.02991136066674,35.60583685782285,-88.0,176.0,324.0,1513,1492.8157958984375,756.943847169203,
15,0.4202919006347656,0.02709794044494629,36.9031735836772,35.68948147072438,-91.0,179.0,323.0,1457,1474.9078979492188,48.042790315203206,
16,0.44597792625427246,0.025686025619506836,38.931674943147534,35.87621507275601,-92.0,182.0,303.0,1452,1463.4539489746094,-198.93931398984353,
17,0.4711029529571533,0.02512502670288086,39.800952724374184,36.085530547600165,-90.0,185.0,297.0,1415,1439.2269744873047,-581.5979901068383,
18,0.5039360523223877,0.032833099365234375,30.457069826885093,35.71881772904926,-96.0,193.0,260.0,1433,1436.1134872436523,-338.2128442459369,
19,0.533869743347168,0.029933691024780273,33.40717318061983,35.5892054883593,-94.0,199.0,209.0,1443,1439.5567436218262,-111.591691057505,
20,0.5612061023712158,0.02733635902404785,36.58131644818894,35.63753123049754,-92.0,200.0,184.0,1424,1431.778371810913,-198.06738586209454,
21,0.5883228778839111,0.027116775512695312,36.877540972075685,35.69468533253904,-89.0,202.0,125.0,1429,1430.3891859054565,-124.64857300419914,
22,0.6159927845001221,0.027669906616210938,36.14034603984283,35.71470405753696,-86.0,202.0,93.0,1429,1429.6945929527283,-74.87570133631753,
23,0.6466219425201416,0.03062915802001953,32.648628452221566,35.56947033124162,-85.0,206.0,33.0,1391,1410.3472964763641,-353.2691977740528,
24,0.6716659069061279,0.025043964385986328,39.929780468764875,35.73205034412182,-89.0,213.0,-2.0,1429,1419.673648238182,9.564990324907853,
25,0.6975967884063721,0.02593088150024414,38.564057299424434,35.837320950274666,-91.0,226.0,-63.0,1452,1435.836824119091,316.4413155684781,
26,0.7238378524780273,0.026241064071655273,38.108210752023844,35.91964679795362,-92.0,232.0,-86.0,1350,1392.9184120595455,-659.551288169442,
27,0.7504761219024658,0.026638269424438477,37.53997619239409,35.97716064776942,-91.0,239.0,-146.0,1374,1383.4592060297728,-507.32482866303104,
28,0.7759339809417725,0.02545785903930664,39.280600872838974,36.08554424439,-91.0,238.0,-177.0,1374,1378.7296030148864,-346.5532384888794,
29,0.8014438152313232,0.02550983428955078,39.20056824554189,36.184694982803805,-87.0,240.0,-232.0,1374,1376.3648015074432,-219.62740068428326,
30,0.8327009677886963,0.03125715255737305,31.99267745724703,36.02733893737074,-88.0,241.0,-240.0,,1376.3648015074432,-219.62740068428326,
31,0.8561258316040039,0.023424863815307617,42.68968254776033,36.209630472099654,-90.0,243.0,-278.0,1327,1351.6824007537216,-636.6556266886291,
32,0.8848998546600342,0.028774023056030273,34.75356914994987,36.16228416298468,-89.0,248.0,-306.0,1299,1325.3412003768608,-776.0531777392732,
33,0.9181609153747559,0.03326106071472168,30.065186693140845,35.94141228123476,-90.0,251.0,-305.0,1322,1323.6706001884304,-413.1400421470147,
34,0.9469740390777588,0.02881312370300293,34.70640706324317,35.90383537136034,-92.0,253.0,-314.0,1350,1336.8353000942152,21.879695824295794,
35,0.9735808372497559,0.02660679817199707,37.584379508409725,35.94976262974796,-92.0,254.0,-304.0,1345,1340.9176500471076,87.65614286997116,
36,0.999500036239624,0.025919198989868164,38.581439202303315,36.01800769857023,-90.0,248.0,-292.0,1378,1359.4588250235538,401.5006789814989,
37,1.0303828716278076,0.030882835388183594,32.38044653058704,35.90898200932541,-85.0,238.0,-271.0,1369,1364.229412511777,277.98721603169724,
38,1.05576491355896,0.025382041931152344,39.39793349614879,35.99286120610208,-86.0,235.0,-242.0,1378,1371.1147062558884,274.6267805318267,
39,1.0824458599090576,0.026680946350097656,37.47992994245273,36.02951560392739,-89.0,236.0,-213.0,1345,1358.0573531279442,-107.38094996869444,
40,1.1112329959869385,0.02878713607788086,34.73773831806662,35.996051363174395,-90.0,236.0,-169.0,1386,1372.028676563972,188.97561375455686,
41,1.1386818885803223,0.02744889259338379,36.431342233494604,36.006544418755695,-91.0,232.0,-127.0,1368,1370.014338281986,57.79528321474665,
42,1.1642229557037354,0.025541067123413086,39.152631922857914,36.075564215801215,-91.0,226.0,-78.0,1419,1394.507169140993,508.37703729313125,
43,1.1915228366851807,0.027299880981445312,36.63019632501921,36.0882718115803,-88.0,219.0,-48.0,1400,1397.2535845704965,304.48938683295296,
44,1.2199580669403076,0.028435230255126953,35.167642077373266,36.06681343593502,-90.0,207.0,17.0,1457,1427.1267922852483,677.529831724184,
45,1.251094102859497,0.031136035919189453,32.117126361088566,35.96851739381405,-88.0,200.0,67.0,1419,1423.0633961426242,273.5126121781843,
46,1.2779178619384766,0.026823759078979492,37.28038255397442,35.99605371367335,-91.0,193.0,112.0,1438,1430.5316980713121,275.96688255412676,
47,1.3039419651031494,0.02602410316467285,38.42591591619104,36.04454895834419,-91.0,191.0,163.0,1419,1424.7658490356562,27.204426162280086,
48,1.332874059677124,0.02893209457397461,34.56369180057684,36.012404661568354,-95.0,191.0,202.0,1499,1461.882924517828,655.0537918334086,
49,1.361327886581421,0.028453826904296875,35.14465746078563,35.99426742300068,-96.0,188.0,241.0,1447,1454.441462258914,196.76307486825525,
50,1.3878049850463867,0.02647709846496582,37.76848891970501,36.02811673019662,-95.0,187.0,263.0,1471,1462.720731129457,254.729274734306,
51,1.4145307540893555,0.02672576904296875,37.41707108192978,36.05435926547437,-91.0,180.0,298.0,1490,1476.3603655647285,382.54222296519924,
52,1.4414317607879639,0.0269010066986084,37.17333002454999,36.07524227964424,-95.0,178.0,305.0,1499,1487.6801827823642,401.66876210697853,
53,1.4691047668457031,0.027673006057739258,36.13629823639387,36.07639236907226,-93.0,171.0,325.0,1438,1462.840091391182,-247.9800943120291,
54,1.4984877109527588,0.029382944107055664,34.03334929122613,36.0363315663537,-91.0,172.0,320.0,1485,1473.920045695591,64.55393033037055,
55,1.5279698371887207,0.029482126235961914,33.91885619091519,35.99547495073158,-93.0,173.0,319.0,1494,1483.9600228477955,202.54923575803508,
56,1.5522079467773438,0.024238109588623047,41.25734296000472,36.07764031634153,-95.0,178.0,303.0,1480,1481.9800114238978,60.4296126887818,
57,1.579756736755371,0.027548789978027344,36.299234949977496,36.081504622712416,-96.0,184.0,280.0,1443,1462.490005711949,-323.52134191282784,
58,1.6065359115600586,0.0267791748046875,37.34245014245014,36.10252318834127,-100.0,188.0,259.0,1452,1457.2450028559745,-259.6912997795314,
59,1.6349797248840332,0.02844381332397461,35.1570300581717,36.08607440326808,-95.0,196.0,216.0,1513,1485.1225014279871,360.19937773167806,
60,1.6631028652191162,0.028123140335083008,35.557906694812516,36.077143064806705,-97.0,197.0,179.0,1424,1454.5612507139936,-363.2473618166386,
61,1.6930208206176758,0.02991795539855957,33.424743993305974,36.030271605132995,-92.0,200.0,122.0,1400,1427.2806253569968,-637.5476401757736,
62,1.721550703048706,0.028529882431030273,35.0509681355139,36.01404239224774,-92.0,204.0,71.0,1490,1458.6403126784985,230.81988043493135,
63,1.749356746673584,0.02780604362487793,35.9634047004553,36.01323750561171,-90.0,206.0,41.0,1429,1443.8201563392493,-151.0816998587538,
64,1.7772350311279297,0.027878284454345703,35.87021294791756,36.010993976065244,-91.0,214.0,4.0,1405,1424.4100781696247,-423.6626685694555,
65,1.803452968597412,0.026217937469482422,38.14182565520252,36.041971225094954,-95.0,227.0,-68.0,1419,1421.7050390848124,-263.4188988664387,
66,1.8304378986358643,0.02698493003845215,37.05772068243464,36.05694574461476,-98.0,239.0,-129.0,1410,1415.8525195424063,-240.14996667870656,
67,1.862828016281128,0.03239011764526367,30.873614321256643,35.966820025477176,-98.0,243.0,-147.0,1513,1464.4262597712031,629.748477643038,
68,1.88820481300354,0.02537679672241211,39.40607677709089,36.01304240498857,-96.0,243.0,-200.0,1299,1381.7131298856016,-1314.8257345512343,
69,1.9131510257720947,0.024946212768554688,40.08624512577414,36.066154250500695,-94.0,244.0,-226.0,1546,1463.8565649428008,988.9980693123812,
70,1.9407029151916504,0.027551889419555664,36.295151478439955,36.069405292302186,-93.0,245.0,-260.0,1313,1388.4282824714005,-874.3414343728248,
71,1.966346025466919,0.025643110275268555,38.99682952907815,36.107581819502336,-93.0,249.0,-277.0,,1388.4282824714005,-874.3414343728248,
72,1.9980659484863281,0.03171992301940918,31.525927707583264,36.03484662482985,-95.0,257.0,-304.0,,1388.4282824714005,-874.3414343728248,
73,2.0221879482269287,0.024121999740600586,41.455932789720784,36.09951293795763,-98.0,260.0,-303.0,1317,1352.7141412357003,-1177.452236541305,
74,2.050532817840576,0.02834486961364746,35.27975304280535,36.088181255216234,-95.0,259.0,-307.0,1386,1369.3570706178502,-295.1468990151022,
75,2.078521728515625,0.027988910675048828,35.72843586554679,36.083337003920185,-95.0,259.0,-303.0,1191,1280.1785353089251,-1740.6782391917166,
76,2.1044957637786865,0.025974035263061523,38.49998623133198,36.11316368893025,-92.0,253.0,-290.0,1363,1321.5892676544627,-73.18280702957338,
77,2.1302578449249268,0.025762081146240234,38.81673977825902,36.145859142564774,-93.0,251.0,-279.0,1363,1342.2946338272313,365.26600185617735,
78,2.1574418544769287,0.027184009552001953,36.7863319826694,36.153929172246954,-89.0,242.0,-250.0,1359,1350.6473169136157,336.2652874089695,
79,2.1851489543914795,0.02770709991455078,36.09183216879496,36.15314179897632,-90.0,242.0,-229.0,,1350.6473169136157,336.2652874089695,
80,2.2065610885620117,0.021412134170532227,46.70249084167511,36.25551108224019,-92.0,242.0,-176.0,1233,1291.8236584568078,-1205.4730414719616,
81,2.2328970432281494,0.026335954666137695,37.9709037578874,36.2757433199412,-187.0,363.0,36.0,1837,1564.4118292284038,4572.473078217442,
82,2.2652909755706787,0.0323939323425293,30.8699786560683,36.198440237613326,-248.0,48.0,0.0,1771,1667.705914614202,3880.579644687563,
83,2.2932920455932617,0.028001070022583008,35.7129209417174,36.19251205248408,179.0,460.0,70.0,1607,1637.352957307101,1398.2934400158715,
84,2.319272994995117,0.02598094940185547,38.489740483794,36.21824605437483,56.0,354.0,-84.0,1555,1596.1764786535505,-93.28926869788484,
85,2.3484060764312744,0.029133081436157227,34.32523958000868,36.19476241909967,-154.0,396.0,-151.0,1743,1669.5882393267752,1213.293502200407,
86,2.372812032699585,0.024405956268310547,40.973604517124826,36.24391600128413,-246.0,233.0,-101.0,1569,1619.2941196633876,-423.7189332120944,
87,2.39727783203125,0.02446579933166504,40.873383552432834,36.29116276701377,-102.0,132.0,40.0,1532,1575.6470598316937,-1103.8609753244523,
88,2.422395944595337,0.025118112564086914,39.81190853606447,36.32766979995108,-63.0,147.0,70.0,1574,1574.8235299158468,-568.3236365054299,
89,2.4505789279937744,0.0281829833984375,35.48240389821332,36.317948784804905,28.0,296.0,165.0,1597,1585.9117649579234,-87.44320111207324,
90,2.4779257774353027,0.02734684944152832,36.56728363309823,36.3207004905335,-27.0,226.0,84.0,1696,1640.9558824789617,962.6853283066629,
91,2.503671884536743,0.02574610710144043,38.8408234324502,36.34661576943731,-152.0,128.0,-5.0,1733,1686.977941239481,1375.1099933109197,
92,2.534198045730591,0.030526161193847656,32.7587865912712,36.30339789543839,-167.0,199.0,24.0,1443,1564.9889706197405,-1310.550330855006,
93,2.5605669021606445,0.02636885643005371,37.92352552916392,36.32008205742456,-172.0,204.0,65.0,1494,1529.4944853098702,-1328.313175324202,
94,2.585577964782715,0.025011062622070312,39.982307633646,36.35550785176169,-146.0,99.0,75.0,1546,1537.7472426549352,-499.17444616399086,
95,2.61187481880188,0.02629685401916504,38.02736248492706,36.37234040319682,-153.0,158.0,109.0,1588,1562.8736213274676,228.15773177496925,
96,2.6371147632598877,0.025239944458007812,39.619738532456736,36.40342139730352,-141.0,220.0,121.0,1583,1572.936810663734,313.4293310402236,
97,2.6634860038757324,0.026371240615844727,37.920096917972316,36.41843803904052,-85.0,252.0,121.0,1588,1580.468405331867,299.514065401356,
98,2.6888699531555176,0.025383949279785156,39.39497313746853,36.44653765608572,-97.0,174.0,82.0,1583,1581.7342026659335,174.6900586871929,
99,2.717721939086914,0.028851985931396484,34.65965921298362,36.42756772727879,-115.0,197.0,119.0,1593,1587.3671013329667,184.9622034339177,
100,2.745274782180786,0.02755284309387207,36.293895210487605,36.42622612828658,-125.0,199.0,115.0,1588,1587.6835506664834,98.22369119199945,
101,2.772495746612549,0.027220964431762695,36.73639126588598,36.42927139686414,-77.0,208.0,90.0,1602,1594.8417753332417,180.59551665957457,
102,2.801325798034668,0.02883005142211914,34.68602901043648,36.41133068904743,-36.0,179.0,69.0,1602,1598.4208876666207,152.37035544338553,
103,2.8293678760528564,0.028042078018188477,35.6606953076511,36.40389108527357,-109.0,164.0,28.0,1621,1609.7104438333104,277.4818890311591,
104,2.856482744216919,0.0271148681640625,36.88013505908835,36.40841178213059,-108.0,268.0,6.0,1649,1629.3552219166552,500.9919789753674,
105,2.884816884994507,0.02833414077758789,35.29311186280945,36.39745751148428,-119.0,255.0,-27.0,1635,1632.1776109583275,300.3014355717376,
106,2.911524772644043,0.026707887649536133,37.44212245918176,36.40704039201364,-68.0,250.0,-71.0,1630,1631.0888054791637,129.76712374333042,
107,2.938372850418091,0.02684807777404785,37.24661439138968,36.414711626802344,0.0,150.0,-30.0,1649,1640.044402739582,231.66640077335728,
108,2.9675629138946533,0.0291900634765625,34.25823314166231,36.393499694420946,-2.0,156.0,45.0,1696,1668.022201369791,595.068174518769,
109,2.995055913925171,0.027493000030517578,36.372894878332204,36.39331055330785,-68.0,225.0,29.0,1724,1696.0111006848956,806.5527335336467,
110,3.022465705871582,0.027409791946411133,36.48331231244292,36.39412675098642,-125.0,210.0,-31.0,1752,1724.0055503424478,913.9414917025421,
111,3.052494764328003,0.0300290584564209,33.301077403117084,36.3636987349383,-126.0,202.0,-5.0,1813,1768.502775171224,1197.8735099747591,
112,3.0801498889923096,0.02765512466430664,36.15966343086711,36.3618668040345,-90.0,228.0,4.0,1790,1779.251387585612,793.2698586139376,
113,3.1074869632720947,0.027337074279785156,36.58035932321646,36.363788918687604,-43.0,230.0,1.0,1813,1796.125693792806,705.2690215015375,
114,3.1370649337768555,0.029577970504760742,33.8089457435575,36.339700454574334,-60.0,230.0,-3.0,1837,1816.562846896403,698.1138109669129,
115,3.1656768321990967,0.02861189842224121,34.95049455448432,36.32714458731187,-58.0,200.0,31.0,1851,1833.7814234482016,649.9557884882607,
116,3.1944057941436768,0.028728961944580078,34.808079802154396,36.31348284324537,-61.0,218.0,42.0,1841,1837.3907117241008,387.79409141237,
117,3.221662998199463,0.027257204055786133,36.68754865514979,36.31664766469661,-60.0,228.0,30.0,1855,1846.1953558620503,355.4074508073355,
118,3.250405788421631,0.02874279022216797,34.791333488171475,36.30315956867028,-71.0,189.0,13.0,1841,1843.5976779310251,132.5153858070882,
119,3.2787959575653076,0.028390169143676758,35.22346044996095,36.293810758618925,-100.0,153.0,-26.0,1859,1851.2988389655125,201.88846346206623,
120,3.306386947631836,0.02759099006652832,36.24371570533592,36.29339272765661,-89.0,170.0,-27.0,1850,1850.6494194827562,89.17554417777157,
121,3.3344829082489014,0.02809596061706543,35.59230501599586,36.28748544509499,-40.0,152.0,11.0,1888,1869.3247097413782,376.936085662451,
122,3.3619818687438965,0.027498960494995117,36.36501096766922,36.28811955657025,-50.0,159.0,40.0,1902,1885.6623548706891,485.5273649878645,
123,3.3897757530212402,0.02779388427734375,35.97913807301674,36.285586115946614,-88.0,165.0,31.0,1878,1881.8311774353447,173.84245152969027,
124,3.4146687984466553,0.02489304542541504,40.17186257889646,36.31391719642269,-72.0,174.0,-7.0,1864,1872.9155887176723,-92.15667662330122,
125,3.4432358741760254,0.028567075729370117,35.00533304400805,36.303060425656376,-93.0,207.0,-3.0,1869,1870.957794358836,-80.34496009302273,
126,3.471202850341797,0.027966976165771484,35.75645769040596,36.298656526971115,-78.0,212.0,25.0,1897,1883.978897179418,192.62177599677116,
127,3.502469778060913,0.03126692771911621,31.98267540013573,36.26012729517727,-39.0,172.0,37.0,1874,1878.989448589709,16.52293066321957,
128,3.5271570682525635,0.02468729019165039,40.5066733625635,36.28984973538879,-57.0,167.0,32.0,1869,1873.9947242948544,-92.89836744225497,
129,3.553834915161133,0.026677846908569336,37.48428437374324,36.29881609009716,-60.0,160.0,18.0,1855,1864.4973621474273,-224.4500954884188,
130,3.581007957458496,0.02717304229736328,36.80117923700558,36.30262807130517,-80.0,152.0,21.0,1859,1861.7486810737137,-162.80240017376025,
131,3.6072850227355957,0.02627706527709961,38.05600014517212,36.31540041176334,-56.0,106.0,10.0,1897,1879.3743405368568,253.9798494571852,
132,3.635758876800537,0.028473854064941406,35.11993837291087,36.3060380165144,-50.0,135.0,19.0,1874,1876.6871702684284,79.8032976162304,
133,3.664041042327881,0.02828216552734375,35.35797140544915,36.29872003712625,-43.0,133.0,24.0,1883,1879.8435851342142,95.7038620922095,
134,3.693068027496338,0.02902698516845703,34.450701448894435,36.28419487599945,-79.0,109.0,-13.0,1883,1881.421792567107,75.03710759361438,
135,3.719796895980835,0.02672886848449707,37.41273225164795,36.292304062585984,-77.0,131.0,5.0,1888,1884.7108962835537,99.04573214246489,
136,3.747300863265991,0.02750396728515625,36.35839112343967,36.292789120078304,-44.0,170.0,17.0,1902,1893.3554481417768,206.6738648453,
137,3.774413824081421,0.027112960815429688,36.882729511079845,36.29702687233605,-63.0,158.0,16.0,1874,1883.6777240708884,-75.133507172072,
138,3.8031089305877686,0.028695106506347656,34.84914752899731,36.28610237537219,-50.0,115.0,-3.0,1864,1873.8388620354442,-209.00473088135897,
139,3.8293888568878174,0.026279926300048828,38.05185709360768,36.29822021077449,-49.0,112.0,-4.0,1869,1871.4194310177222,-150.53428710777897,
140,3.8558337688446045,0.02644491195678711,37.81445752718224,36.30861919702281,-60.0,122.0,0.0,1869,1870.209715508861,-98.1395114187905,
141,3.884566068649292,0.0287322998046875,34.804036112586296,36.29749050684246,-72.0,151.0,0.0,1883,1876.6048577544307,62.21862512056933,
