Index,Time,Difference,Hz,AveHz,0x6103 Linear-Acceleration-X,0x6103 Linear-Acceleration-Y,0x6103 Linear-Acceleration-Z,0x6103 Range,0x6103 Smoothed Range,0x6103 Velocity,
0,9.5367431640625e-07,9.5367431640625e-07,1048576.0,0.0,-13.0,15.0,-29.0,1270,1284.5,-7602176.0,
1,0.02907705307006836,0.029076099395751953,34.39250865080276,34.39138063923646,-13.0,12.0,69.0,1317,1300.75,-3800808.5608672122,
2,0.05810093879699707,0.02902388572692871,34.454380416478415,34.42285170275716,-27.0,14.0,153.0,1345,1322.875,-1900023.1288502489,
3,0.0867300033569336,0.028629064559936523,34.929538054114374,34.59010589050284,-30.0,25.0,236.0,1368,1345.4375,-949617.5155739514,
4,0.11633491516113281,0.02960491180419922,33.778178655413456,34.38348662961324,-31.0,36.0,327.0,1405,1375.21875,-474305.77959543496,
5,0.14505696296691895,0.028722047805786133,34.816459006051346,34.46921745590578,-26.0,46.0,380.0,1377,1376.109375,-237137.38559331634,
6,0.17107796669006348,0.02602100372314453,38.43049294484149,35.071728499497596,-25.0,50.0,429.0,1429,1402.5546875,-118060.53959893048,
7,0.1971127986907959,0.026034832000732422,38.41008077071009,35.5126610067602,-24.0,50.0,475.0,1415,1408.77734375,-58910.76343487981,
8,0.221174955368042,0.024062156677246094,41.55903452102572,36.170460560002155,-23.0,51.0,498.0,1461,1434.888671875,-28912.800923971554,
9,0.24682974815368652,0.02565479278564453,38.97907140998476,36.46237970634003,-22.0,48.0,525.0,1457,1445.9443359375,-14240.930702497282,
10,0.27227091789245605,0.02544116973876953,39.30636878209694,36.72812387531557,-25.0,48.0,531.0,1490,1467.97216796875,-6687.548306603441,
11,0.29733991622924805,0.025068998336791992,39.88990651183581,36.99469664045724,-15.0,46.0,532.0,1485,1476.486083984375,-3173.9644963452693,
12,0.3224020004272461,0.025062084197998047,39.90091135676097,37.22061272603035,-12.0,46.0,529.0,1438,1457.2430419921875,-1970.8897045549859,
13,0.3501279354095459,0.027725934982299805,36.067313893594516,37.12928528480269,-19.0,41.0,499.0,1443,1450.1215209960938,-1113.8719188604616,
14,0.37801599502563477,0.027888059616088867,35.85763992784536,37.03546988547563,-21.0,41.0,483.0,1433,1441.5607604980469,-710.4202931539743,
15,0.40547800064086914,0.027462005615234375,36.41394638144187,36.993375661052106,-26.0,36.0,409.0,1386,1413.7803802490234,-861.0067849989903,
16,0.43242883682250977,0.026950836181640625,37.10460014154282,37.00030765193209,-25.0,35.0,380.0,1368,1390.8901901245117,-855.1690683664449,
17,0.45822787284851074,0.025799036026000977,38.761138167804894,37.09944551020398,-15.0,37.0,286.0,1363,1376.9450950622559,-697.848412418859,
18,0.48406291007995605,0.025835037231445312,38.707124400147656,37.18524932436326,-1.0,30.0,205.0,1345,1360.972547531128,-658.0498983467496,
19,0.5099458694458008,0.025882959365844727,38.635458405873194,37.258856554027645,0.0,22.0,168.0,1363,1361.986273765564,-309.44206029062684,
20,0.5344479084014893,0.024502038955688477,40.81292996915412,37.421794875798355,-4.0,5.0,60.0,1345,1353.493136882782,-328.03593055302395,
21,0.5593407154083252,0.024892807006835938,40.17224733736878,37.54420055881281,-14.0,-1.0,-8.0,1289,1321.246568441391,-811.7265268809867,
22,0.585040807723999,0.025700092315673828,38.910366068612355,37.60421445742773,-9.0,-2.0,-87.0,1345,1333.1232842206955,-174.7995841076919,
23,0.6107678413391113,0.025727033615112305,38.86961920913379,37.65751639701985,-13.0,-3.0,-147.0,1294,1313.5616421103477,-467.5765820211326,
24,0.6383590698242188,0.027591228485107422,36.24340251974491,37.596395405815635,-12.0,-7.0,-242.0,1261,1287.2808210551739,-710.0414790365933,
25,0.6643359661102295,0.025976896286010742,38.49574595016291,37.63156185322637,-13.0,-13.0,-281.0,1139,1213.140410527587,-1782.0659436736819,
26,0.6902830600738525,0.025947093963623047,38.53996140770008,37.665707742007015,-12.0,-19.0,-366.0,1135,1174.0702052637935,-1643.9150733656015,
27,0.7183828353881836,0.028099775314331055,35.58747316708949,37.5844169291856,-5.0,-18.0,-401.0,1144,1159.0351026318967,-1089.4881924213316,
28,0.7475090026855469,0.02912616729736328,34.333387904783734,37.45774284912353,400.0,424.0,-145.0,1112,1135.5175513159484,-948.4627021612221,
29,0.7744579315185547,0.026948928833007812,37.1072262722061,37.44554587120942,-75.0,124.0,-327.0,1074,1104.7587756579742,-1044.9177751788475,
30,0.8004539012908936,0.025995969772338867,38.467501261062964,37.47873544200227,-106.0,-44.0,-740.0,1093,1098.879387828987,-635.5415669523434,
31,0.8258187770843506,0.02536487579345703,39.42459675903297,37.53850222375557,28.0,-218.0,-760.0,1135,1116.9396939144935,38.23935890672891,
32,0.8519058227539062,0.026087045669555664,38.33320233601726,37.56283751712773,218.0,-195.0,-607.0,1153,1134.9698469572468,364.69643182197274,
33,0.8788459300994873,0.026940107345581055,37.11937696358246,37.549243695381655,76.0,8.0,-602.0,1214,1174.4849234786234,915.7357264818789,
34,0.907783031463623,0.028937101364135742,34.55771147967801,37.45388360606568,-90.0,120.0,-559.0,1144,1159.2424617393117,194.4955657273572,
35,0.9342749118804932,0.026491880416870117,37.74741484048058,37.4622068461119,-164.0,121.0,-586.0,1158,1158.6212308696558,85.52285318937271,
36,0.9603478908538818,0.026072978973388672,38.35388357504709,37.48641543638007,78.0,107.0,-406.0,1130,1144.310615434828,-231.6724125426447,
37,0.9891939163208008,0.028846025466918945,34.666820950664935,37.40419283775771,171.0,-152.0,-266.0,1144,1144.155307717414,-118.5282186872455,
38,1.0182740688323975,0.02908015251159668,34.38771511260874,37.31804743252732,-169.0,212.0,-225.0,1209,1176.577653858707,498.20109185096396,
39,1.0457401275634766,0.0274660587310791,36.40857284224963,37.29416034829618,-176.0,132.0,-70.0,1261,1218.7888269293535,1017.5248306752017,
40,1.0723328590393066,0.026592731475830078,37.604260431422475,37.3018505054817,-32.0,-28.0,60.0,1280,1249.3944134646767,1084.212638702967,
41,1.0996239185333252,0.027291059494018555,36.642036569491644,37.28547488734664,240.0,-291.0,143.0,1322,1285.6972067323384,1207.2104585956597,
42,1.125837802886963,0.026213884353637695,38.147723035225425,37.30555137898217,-96.0,-28.0,67.0,1345,1315.3486033661693,1169.1718624953287,
43,1.1541121006011963,0.0282742977142334,35.36781037346847,37.258079156782586,-35.0,68.0,252.0,1396,1355.6743016830846,1297.7017568728438,
44,1.1838529109954834,0.02974081039428711,33.62383158839845,37.16677941265616,-128.0,-34.0,260.0,1461,1408.3371508415423,1534.214263971028,
45,1.2131609916687012,0.029308080673217773,34.120282769448536,37.09318079713606,-5.0,-107.0,325.0,1494,1451.168575420771,1497.8172910163103,
46,1.2385179996490479,0.02535700798034668,39.436829486154856,37.141163885413675,39.0,-40.0,325.0,1457,1454.0842877103855,806.4018697062612,
47,1.2676289081573486,0.02911090850830078,34.351384111384114,37.07709700966047,83.0,-5.0,313.0,1410,1432.0421438551928,24.611859749074824,
48,1.29435396194458,0.026725053787231445,37.41807249337604,37.08413726944284,-22.0,48.0,210.0,1433,1432.5210719275965,21.26621254069527,
49,1.3217637538909912,0.027409791946411133,36.48331231244292,37.071677790947454,-51.0,36.0,158.0,1438,1435.2605359637982,60.605467271074616,
50,1.350579023361206,0.028815269470214844,34.703822604666556,37.02115843289514,12.0,-16.0,192.0,1405,1420.1302679818991,-232.23633436690938,
51,1.3796589374542236,0.029079914093017578,34.38799704845454,36.96565768211258,-77.0,40.0,202.0,1466,1443.0651339909496,278.22388512950874,
52,1.4048519134521484,0.025192975997924805,39.69360349020981,37.01457748113834,-125.0,133.0,129.0,1438,1440.5325669954748,88.84858749937041,
53,1.4321930408477783,0.027341127395629883,36.574936560949446,37.00618456337908,-39.0,67.0,78.0,1452,1446.2662834977373,149.27945241404507,
54,1.4567608833312988,0.024567842483520508,40.703614925517975,37.068540635518445,-3.0,21.0,106.0,1513,1479.6331417488686,753.7156009712191,
55,1.4842069149017334,0.02744603157043457,36.435139901144055,37.05682775614979,-5.0,-14.0,-9.0,1527,1503.3165708744343,808.3123272500172,
56,1.511671781539917,0.027464866638183594,36.41015313031703,37.045078623452014,77.0,-66.0,7.0,1574,1538.6582854372173,1047.55478318445,
57,1.540235996246338,0.0285642147064209,35.008839216406386,37.00731585218951,42.0,-21.0,14.0,1546,1542.3291427186086,588.0336177675274,
58,1.568314790725708,0.028078794479370117,35.61406458296185,36.982371360000755,15.0,38.0,-32.0,1569,1555.6645713593043,531.4812173093712,
59,1.5949809551239014,0.02666616439819336,37.50070632834433,36.99103729763141,14.0,-57.0,-37.0,1518,1536.8322856796522,-87.37139872737441,
60,1.6258518695831299,0.030870914459228516,32.392950371480204,36.90373097481756,-9.0,-63.0,-99.0,1527,1531.916142839826,-123.30988487848418,
61,1.654675006866455,0.028823137283325195,34.69434954877454,36.86524528796679,-16.0,1.0,-90.0,1536,1533.958071419913,-26.233250483657166,
62,1.6805288791656494,0.025853872299194336,38.67892547884064,36.89314760885384,-81.0,6.0,-64.0,1518,1525.9790357099564,-167.42688905103907,
63,1.708756923675537,0.028228044509887695,35.42576247708979,36.86890693878622,6.0,25.0,-44.0,1560,1542.9895178549782,217.59120551963997,
64,1.7361679077148438,0.02741098403930664,36.48172566756545,36.86279403945281,-13.0,111.0,3.0,1593,1567.994758927489,564.9127752891613,
65,1.763489007949829,0.02732110023498535,36.60174705261229,36.85874973247876,12.0,48.0,25.0,1621,1594.4973794637444,767.4774941942735,
66,1.7923128604888916,0.0288238525390625,34.69348861831657,36.82392815169395,6.0,29.0,30.0,1607,1600.7486897318722,492.17862791556513,
67,1.8220858573913574,0.02977299690246582,33.58748208236905,36.771044420443786,-51.0,-8.0,82.0,1602,1601.374344865936,256.5964042603391,
68,1.8500919342041016,0.02800607681274414,35.7065363594572,36.75493025121111,-52.0,-39.0,95.0,1593,1597.187172432968,53.54348976962419,
69,1.8746318817138672,0.024539947509765625,40.74988341364838,36.807226353644054,-45.0,-34.0,73.0,1658,1627.593586216484,646.3006532375255,
70,1.9003100395202637,0.025678157806396484,38.94360364710033,36.83609439734982,-22.0,-33.0,11.0,1644,1635.7967931082421,482.88154553265736,
71,1.939598798751831,0.03928875923156738,25.452572683856324,36.60550833795621,-17.0,0.0,22.0,,1635.7967931082421,482.88154553265736,
72,1.9643778800964355,0.024779081344604492,40.35662121984778,36.65282567550871,0.0,-1.0,33.0,1626,1630.898396554121,142.59940560669298,
73,1.993237018585205,0.02885913848876953,34.651069032748424,36.62384318540062,18.0,0.0,43.0,1602,1616.4491982770605,-179.04038067980053,
74,2.0225749015808105,0.02933788299560547,34.08562233852355,36.58702574730995,0.0,-5.0,35.0,1668,1642.2245991385303,349.7650993541557,
75,2.0480809211730957,0.025506019592285156,39.20643110861843,36.61964682383822,0.0,16.0,44.0,1668,1655.1122995692651,427.52291922013717,
76,2.075439929962158,0.0273590087890625,36.551031790295596,36.61874232196435,-6.0,-20.0,26.0,1654,1654.5561497846325,203.59753538093102,
77,2.1022629737854004,0.026823043823242188,37.281376662163126,36.62719695878551,9.0,-17.0,28.0,1658,1656.2780748923162,133.89663695226278,
78,2.128516912460327,0.026253938674926758,38.08952296194048,36.64523384493137,-10.0,43.0,48.0,1644,1650.139037446158,-49.968185408696726,
79,2.1595027446746826,0.03098583221435547,32.27281401003355,36.582495759643464,-10.0,15.0,31.0,1672,1661.069518723079,151.39460194076435,
80,2.1848039627075195,0.025301218032836914,39.523788882502046,36.61655753354638,-2.0,21.0,5.0,1630,1645.5347593615395,-231.2989737025976,
81,2.209786891937256,0.024982929229736328,40.02733189548222,36.65511832636027,-3.0,25.0,-4.0,1635,1640.2673796807699,-221.06906420214153,
82,2.2358720302581787,0.02608513832092285,38.33600526464916,36.67472864738657,4.0,-2.0,-9.0,1654,1647.133689840385,21.078919112787872,
83,2.2602617740631104,0.02438974380493164,41.00084068114724,36.72141030408034,-36.0,-1.0,11.0,1672,1659.5668449201926,265.42436485198886,
84,2.2853760719299316,0.02511429786682129,39.81795570407359,36.75543864825036,-25.0,20.0,19.0,1658,1658.7834224600963,117.11504201914921,
85,2.3133819103240967,0.02800583839416504,35.70684033541906,36.74274430030958,-13.0,-9.0,10.0,1658,1658.3917112300483,51.56413583511678,
86,2.3399839401245117,0.02660202980041504,37.591116448730475,36.75238899093636,-10.0,36.0,-2.0,1663,1660.6958556150241,69.08974786271659,
87,2.3654868602752686,0.025502920150756836,39.21119597632915,36.778898019275374,0.0,31.0,15.0,1663,1661.847927807512,57.13193819061789,
88,2.3896539211273193,0.02416706085205078,41.37863541296713,36.82541610815594,-11.0,28.0,24.0,1663,1662.423963903756,40.48376290090411,
89,2.418220043182373,0.02856612205505371,35.00650169010558,36.8039295062976,-5.0,0.0,18.0,1654,1658.211981951878,-53.48149520810344,
90,2.4462599754333496,0.028039932250976562,35.663424256853276,36.79085661533448,-18.0,0.0,16.0,1635,1646.605990975939,-233.69543765211318,
91,2.4753947257995605,0.029134750366210938,34.32327332242226,36.76181380349621,-20.0,-3.0,21.0,1672,1659.3029954879694,101.05365929516725,
92,2.5027170181274414,0.02732229232788086,36.600150089879406,36.760048912295865,-44.0,27.0,28.0,1672,1665.6514977439847,166.70489735563277,
93,2.528571844100952,0.025854825973510742,38.67749877815996,36.779654972812004,-37.0,13.0,45.0,1616,1640.8257488719923,-396.74648715387855,
94,2.5554277896881104,0.026855945587158203,37.23570249107793,36.7844477466032,-35.0,6.0,37.0,1612,1626.4128744359962,-466.7099958469473,
95,2.580735921859741,0.02530813217163086,39.51299105040038,36.811205360190705,-38.0,5.0,54.0,1612,1619.206437217998,-375.72894257349117,
96,2.60910701751709,0.028371095657348633,35.24714068421893,36.79419792115568,20.0,-23.0,20.0,1593,1606.103218608999,-418.78996615047697,
97,2.6361727714538574,0.027065753936767578,36.9470587198957,36.79576735272332,-23.0,-38.0,4.0,1616,1611.0516093044994,-117.98074227741921,
98,2.6609017848968506,0.024729013442993164,40.43832975000241,36.82961940055181,-19.0,-14.0,-87.0,1560,1585.5258046522497,-575.1008239696189,
99,2.688977003097534,0.028075218200683594,35.61860117531166,36.81697533521416,20.0,-19.0,-98.0,1565,1575.2629023261247,-470.3255244125211,
100,2.7177670001983643,0.028789997100830078,34.734286234824516,36.794912879838925,55.0,-20.0,-86.0,1569,1572.1314511630624,-289.5471227203517,
101,2.744919776916504,0.02715277671813965,36.82864593851801,36.79524656762756,78.0,-51.0,-55.0,1597,1584.5657255815313,84.19518366990621,
102,2.7748711109161377,0.02995133399963379,33.38749452736318,36.75846405937182,38.0,-4.0,1.0,1583,1583.7828627907656,29.02867826377093,
103,2.803464889526367,0.028593778610229492,34.97264260282996,36.74024967632157,56.0,37.0,-5.0,1574,1578.8914313953828,-71.01880187160721,
104,2.830338716506958,0.02687382698059082,37.210926479590476,36.74471871280157,121.0,52.0,-15.0,1574,1576.4457156976914,-81.01307444419135,
105,2.8591198921203613,0.02878117561340332,34.74493236246759,36.724587971765885,68.0,3.0,-40.0,1579,1577.7228578488457,-18.31942839253952,
106,2.886353015899658,0.027233123779296875,36.71998879394873,36.72454457791278,54.0,-8.0,-55.0,1579,1578.3614289244229,2.5644471733965517,
107,2.9130969047546387,0.02674388885498047,37.39171985878829,36.73066962700724,18.0,-4.0,-28.0,1593,1585.6807144622114,138.12256078443374,
108,2.9422447681427,0.029147863388061523,34.30783199051164,36.70666736138859,10.0,-32.0,-27.0,1574,1579.8403572311058,-31.123716932453448,
109,2.9709057807922363,0.028661012649536133,34.890602513871215,36.68914736533096,-19.0,-9.0,12.0,1583,1581.420178615553,11.998601517601784,
110,2.9974920749664307,0.026586294174194336,37.61336549757423,36.69734472983783,-7.0,-23.0,31.0,1612,1596.7100893077763,293.5518004047349,
111,3.02436900138855,0.02687692642211914,37.20663532333895,36.70187068741864,-20.0,-50.0,43.0,1602,1599.3550446538882,195.98084470701673,
112,3.0531740188598633,0.028805017471313477,34.71617404835412,36.68313673186037,-6.0,-25.0,46.0,1626,1612.6775223269442,329.2431491800708,
113,3.080293893814087,0.027119874954223633,36.87332635891305,36.68481122107506,-13.0,-47.0,68.0,1626,1619.338761163472,287.43259137701517,
114,3.1091437339782715,0.02884984016418457,34.66223709764059,36.66604369368685,-26.0,-58.0,72.0,1574,1596.669380581736,-249.16942660188474,
115,3.1363327503204346,0.027189016342163086,36.779557870553056,36.667027753432926,9.0,-10.0,63.0,1621,1608.834690290868,99.13264292916575,
116,3.163343906402588,0.02701115608215332,37.021740089855506,36.67005657058556,13.0,49.0,23.0,1593,1600.917345145434,-96.99062562338472,
117,3.191567897796631,0.02822399139404297,35.43084980571042,36.65909789378867,19.0,72.0,7.0,1593,1596.958672572717,-118.62487948865261,
118,3.2201080322265625,0.02854013442993164,35.03837735786009,36.644733288158726,-27.0,49.0,-25.0,1616,1606.4793362863584,107.48186420360017,
119,3.247328996658325,0.027220964431762695,36.73639126588598,36.64550161762401,-21.0,23.0,-36.0,1640,1623.2396681431792,361.5979865209314,
120,3.275751829147339,0.028422832489013672,35.18298186454611,36.63281172042736,-2.0,34.0,-24.0,1658,1640.6198340715896,486.54202459149843,
121,3.303542137145996,0.027790307998657227,35.98376815572962,36.62735178687159,-18.0,-10.0,-7.0,1602,1621.3099170357948,-104.15077656545762,
122,3.331552028656006,0.028009891510009766,35.70167344784733,36.6195691829602,-30.0,111.0,-32.0,1649,1635.1549585178973,195.0701866502328,
123,3.3604629039764404,0.02891087532043457,34.5890599615705,36.60210022091121,-22.0,119.0,-39.0,,1635.1549585178973,195.0701866502328,
124,3.3810508251190186,0.020587921142578125,48.572169723920695,36.67498846180018,18.0,22.0,-24.0,1616,1625.5774792589486,-135.06438072137544,
125,3.408094882965088,0.027044057846069336,36.976699491320716,36.67738261185039,-50.0,-27.0,-46.0,1668,1646.7887396294743,324.62900991585633,
126,3.435717821121216,0.02762293815612793,36.201797011885134,36.67355893589684,-54.0,3.0,-30.0,1672,1659.3943698147373,390.48773754481886,
127,3.4634809494018555,0.02776312828063965,36.01899576631429,36.668311983044966,-68.0,44.0,-10.0,1640,1649.6971849073686,20.60243771057054,
128,3.492331027984619,0.028850078582763672,34.66195064707535,36.651737471137494,-8.0,-37.0,-19.0,1621,1635.3485924536844,-238.3738828870146,
129,3.5194168090820312,0.02708578109741211,36.919740154569304,36.653800046390934,1.0,-32.0,5.0,1616,1625.6742962268422,-297.77319288017975,
130,3.546435832977295,0.027019023895263672,37.01095953267564,36.65652111654385,-27.0,106.0,54.0,1621,1623.337148113421,-192.1366435639388,
131,3.575279951095581,0.028844118118286133,34.669113331845494,36.64048740011461,-17.0,107.0,73.0,1569,1596.1685740567104,-567.0235083003391,
132,3.6029019355773926,0.027621984481811523,36.20304691208839,36.637133721722016,-10.0,72.0,59.0,1579,1587.5842870283552,-438.9004271473575,
133,3.6279799938201904,0.02507805824279785,39.87549555544992,36.659518582392636,-17.0,76.0,82.0,1602,1594.7921435141775,-75.7417889413152,
134,3.655452013015747,0.02747201919555664,36.40067345911513,36.657573269427225,-76.0,-26.0,45.0,1551,1572.8960717570887,-436.386773504228,
135,3.681595802307129,0.026143789291381836,38.2500022798778,36.66888144412816,-28.0,-1.0,43.0,1541,1556.9480358785445,-523.1995911090594,
136,3.7095108032226562,0.027915000915527344,35.82303303611083,36.66251622231409,6.0,-22.0,34.0,1513,1534.9740179392722,-655.1877808418504,
137,3.737241744995117,0.027730941772460938,36.06080198087901,36.6580514047477,24.0,-17.0,23.0,1475,1504.987008969636,-868.2716866473727,
138,3.7643558979034424,0.027114152908325195,36.88110793581007,36.65965805115799,-38.0,46.0,29.0,1471,1487.993504484818,-747.505479879809,
139,3.7918479442596436,0.027492046356201172,36.37415662128176,36.65758807929723,-50.0,56.0,7.0,1461,1474.496752242409,-619.2192299119149,
140,3.820054054260254,0.02820611000061035,35.45331135624023,36.648696068545746,-37.0,56.0,9.0,1485,1479.7483761212045,-216.51588670555606,
141,3.846275806427002,0.026221752166748047,38.13627684530196,36.65883756032097,10.0,-16.0,-31.0,1522,1500.8741880606021,294.5719629985489,
142,3.8768999576568604,0.0306241512298584,32.65396622731555,36.6272025460834,-2.0,-11.0,-14.0,1532,1516.437094030301,401.3812844659926,
