Index,Time,Difference,Hz,AveHz,0x6103 Linear-Acceleration-X,0x6103 Linear-Acceleration-Y,0x6103 Linear-Acceleration-Z,0x6103 Range,0x6103 Smoothed Range,0x6103 Velocity,
0,0.0,0.0,0,0,-16.0,-17.0,7.0,1499,1501.5,,
1,0.028835773468017578,0.028835773468017578,34.67914606518612,34.67914606518612,45.0,29.0,36.0,1475,1488.25,-229.74934268185802,
2,0.05383491516113281,0.024999141693115234,40.00137333816545,37.15061116031887,22.0,40.0,34.0,1424,1456.125,-757.3967305852116,
3,0.07921886444091797,0.025383949279785156,39.39497313746853,37.869767777817906,-12.0,18.0,6.0,1355,1405.5625,-1374.652529924232,
4,0.10476970672607422,0.02555084228515625,39.13765303075545,38.17897486778507,-8.0,-2.0,3.0,1372,1388.78125,-1015.7156349232985,
5,0.13384389877319336,0.02907419204711914,34.39476489593755,37.35695123819431,0.0,-15.0,-3.0,1433,1410.890625,-127.63443990108965,
6,0.16270995140075684,0.028866052627563477,34.64276923839336,36.87543354506891,-16.0,2.0,2.0,1569,1489.9453125,1305.5194281873555,
7,0.19186997413635254,0.029160022735595703,34.29352607394568,36.48304030637667,-3.0,6.0,3.0,1569,1529.47265625,1330.5257108558972,
8,0.21945977210998535,0.027589797973632812,36.245281714483234,36.45315003786064,4.0,2.0,1.0,1359,1444.236328125,-879.4445071714292,
9,0.2455606460571289,0.026100873947143555,38.31289335464718,36.65082391869167,0.0,8.0,-9.0,1438,1441.1181640625,-499.4551971801426,
10,0.2730097770690918,0.02744913101196289,36.43102579692521,36.62872482940146,43.0,30.0,9.0,1504,1472.55908203125,322.98484820919913,
11,0.30118393898010254,0.028174161911010742,35.49351363701754,36.522531836356336,9.0,43.0,6.0,1555,1513.779541015625,893.0218856476178,
12,0.3292689323425293,0.028084993362426758,35.60620389313819,36.4443736450566,-23.0,39.0,-14.0,1355,1434.3897705078125,-966.8732350415019,
13,0.3563117980957031,0.027042865753173828,36.97832948353993,36.48489909533751,-34.0,11.0,-22.0,1313,1373.6948852539062,-1605.634349963048,
14,0.3851766586303711,0.02886486053466797,34.644199953745,36.34695843144246,-1.0,-24.0,-26.0,1345,1359.3474426269531,-1051.3450105780482,
15,0.41247081756591797,0.027294158935546875,36.637875611460515,36.36620910181801,7.0,-1.0,-12.0,1386,1372.6737213134766,-281.5492348487726,
16,0.4401688575744629,0.027698040008544922,36.10363764697781,36.34968654567594,27.0,48.0,9.0,1475,1423.8368606567383,782.8131044410914,
17,0.46877288818359375,0.02860403060913086,34.96010802340507,36.264895919795585,6.0,53.0,-7.0,1654,1538.9184303283691,2403.0386058321615,
18,0.500626802444458,0.03185391426086426,31.39331611840874,35.95492672807307,-6.0,43.0,-3.0,1228,1383.4592151641846,-1238.6708396684032,
19,0.5304567813873291,0.029829978942871094,33.52332235685284,35.81818663965118,16.0,19.0,-2.0,1396,1389.7296075820923,-514.2332266694585,
20,0.5582478046417236,0.02779102325439453,35.98284204385573,35.82638361262477,-2.0,0.0,-8.0,1485,1437.3648037910461,599.9082571227018,
21,0.5865609645843506,0.028313159942626953,35.319265035283024,35.80190511804862,-37.0,4.0,-25.0,1438,1437.682401895523,305.56279437471295,
22,0.6126236915588379,0.026062726974487305,38.36897040662306,35.91111526232424,-25.0,23.0,-6.0,1461,1449.3412009477615,376.4494550934078,
23,0.6374998092651367,0.024876117706298828,40.19919875788303,36.07844216692821,3.0,15.0,0.0,1363,1406.1706004738808,-679.4870469266424,
24,0.6622767448425293,0.024776935577392578,40.36011624102692,36.23862711004072,27.0,14.0,11.0,1317,1361.5853002369404,-1239.4774735653207,
25,0.6874969005584717,0.025220155715942383,39.65082576266059,36.363800301778596,32.0,32.0,15.0,1374,1367.7926501184702,-496.6754624824552,
26,0.7186696529388428,0.031172752380371094,32.07929758007771,36.17795727658552,4.0,48.0,18.0,,1367.7926501184702,-496.6754624824552,
27,0.7417087554931641,0.02303910255432129,43.40446845280598,36.40242858134744,-42.0,33.0,4.0,1480,1423.896325059235,969.2373632852282,
28,0.7685666084289551,0.026857852935791016,37.23305814469596,36.4314552478873,-21.0,20.0,7.0,1447,1435.4481625296175,699.6737997490277,
29,0.7964589595794678,0.027892351150512695,35.85212284915676,36.41116676659908,-2.0,0.0,16.0,1461,1448.2240812648088,578.8588038769735,
30,0.8245058059692383,0.028046846389770508,35.654632471076276,36.38543207677458,-9.0,-26.0,-3.0,1447,1447.6120406324044,278.518360035615,
31,0.8526108264923096,0.02810502052307129,35.58083151652938,36.35890964173631,-4.0,11.0,18.0,1551,1499.3060203162022,1058.9165707918587,
32,0.8806858062744141,0.028074979782104492,35.618903655895714,36.33531932956925,0.0,47.0,34.0,1359,1429.153010158101,-719.9283696003088,
33,0.9057137966156006,0.025027990341186523,39.95526553941415,36.4353509058952,0.0,46.0,38.0,1242,1335.5765050790505,-2229.401239142055,
34,0.9351077079772949,0.029393911361694336,34.020651001322115,36.35944791166831,10.0,29.0,31.0,1363,1349.2882525395253,-881.4593320854898,
35,0.9635848999023438,0.028477191925048828,35.115821905192476,36.32269455815169,-12.0,8.0,19.0,1396,1372.6441262697626,-30.64931486715551,
36,0.9938168525695801,0.030231952667236328,33.07758552704216,36.223978197712775,-55.0,-13.0,4.0,1433,1402.8220631348813,483.78198640924313,
37,1.0221247673034668,0.02830791473388672,35.32580938584375,36.19910326369655,-36.0,-3.0,6.0,1396,1399.4110315674407,181.64226772436928,
38,1.0502986907958984,0.02817392349243164,35.4938139967843,36.18018410667945,1.0,15.0,32.0,1374,1386.7055157837203,-134.66247311810358,
39,1.0762407779693604,0.025942087173461914,38.5473995717266,36.237244302882466,16.0,2.0,14.0,1275,1330.8527578918602,-1143.820524379272,
40,1.1015527248382568,0.025311946868896484,39.507036150933445,36.31237897021523,12.0,-5.0,20.0,1247,1288.92637894593,-1400.1037465369332,
41,1.1281490325927734,0.0265963077545166,37.599203965827904,36.34271609112811,4.0,15.0,16.0,1266,1277.463189472965,-915.5552728149385,
42,1.153655767440796,0.02550673484802246,39.20533168821215,36.406007047639875,-21.0,31.0,19.0,1261,1269.2315947364825,-619.1388373908385,
43,1.181405782699585,0.027750015258789062,36.03601622104612,36.39731634099704,-17.0,17.0,10.0,1270,1269.6157973682411,-302.646852560308,
44,1.2078688144683838,0.026463031768798828,37.788565147665636,36.42779701979938,-7.0,10.0,13.0,1317,1293.3078986841206,296.3218307499483,
45,1.2352325916290283,0.02736377716064453,36.544662461227475,36.43038590866022,-23.0,-22.0,-10.0,1266,1279.6539493420603,-101.32856960917195,
46,1.263824701309204,0.02859210968017578,34.974683966512124,36.397452868541265,-32.0,-39.0,-12.0,1313,1296.3269746710303,240.90261101860233,
47,1.2910778522491455,0.027253150939941406,36.69300486405151,36.403691627211174,16.0,9.0,13.0,1350,1323.1634873355151,612.8074503753628,
48,1.3187367916107178,0.027658939361572266,36.15467632100681,36.39846882665065,18.0,36.0,6.0,1355,1339.0817436677576,594.1634278312026,
49,1.3471486568450928,0.028411865234375,35.19656283566058,36.373120183153226,13.0,29.0,8.0,1363,1351.0408718338788,507.54181689490315,
50,1.3732237815856934,0.026075124740600586,38.35072736748745,36.41067149468081,-8.0,2.0,-12.0,1386,1368.5204359169393,588.947906773441,
51,1.4012908935546875,0.02806711196899414,35.62888839809042,36.395012794686124,-26.0,-2.0,-12.0,1415,1391.7602179584696,708.477753763536,
52,1.4304509162902832,0.029160022735595703,34.29352607394568,36.352173575348026,-23.0,-11.0,-17.0,1433,1412.3801089792348,707.8032620630325,
53,1.4573028087615967,0.026851892471313477,37.24132297447281,36.368556816986406,3.0,-2.0,-7.0,1490,1451.1900544896175,1076.568488718443,
54,1.4852569103240967,0.0279541015625,35.77292576419214,36.35734641235684,0.0,3.0,-12.0,1447,1449.0950272448088,500.8116173079696,
55,1.5135178565979004,0.02826094627380371,35.38451934027924,36.33918143762738,-9.0,-6.0,-13.0,1443,1446.0475136224045,196.48840629812068,
56,1.5406169891357422,0.027099132537841797,36.90155021027256,36.34907338741927,18.0,0.0,-4.0,1405,1425.5237568112022,-280.4350180869413,
57,1.5682177543640137,0.027600765228271484,36.23087953285075,36.34699316557361,15.0,17.0,0.0,1396,1410.7618784056012,-407.63542813943116,
58,1.597505807876587,0.029288053512573242,34.14361420675171,36.30659726808374,-8.0,32.0,-8.0,1377,1393.8809392028006,-492.0058518637431,
59,1.6250298023223877,0.02752399444580078,36.331935830359306,36.30702644079574,-18.0,6.0,-17.0,1359,1376.4404696014003,-562.8259371365757,
60,1.6529228687286377,0.02789306640625,35.85120350109409,36.29933443061962,-30.0,-10.0,-16.0,1359,1367.7202348007002,-437.72842477689983,
61,1.6810758113861084,0.028152942657470703,35.52026557815755,36.286287380283746,-17.0,-30.0,-26.0,1369,1368.3601174003502,-207.49981244924433,
62,1.7089407444000244,0.027864933013916016,35.88740010609717,36.27978337058549,31.0,-15.0,-1.0,1322,1345.180058700175,-519.6859267526232,
63,1.7414238452911377,0.03248310089111328,30.78523824902381,36.17729260475782,21.0,24.0,11.0,1327,1336.0900293500877,-399.762322992842,
64,1.7666046619415283,0.025180816650390625,39.7127707923042,36.22768657797094,10.0,27.0,11.0,1317,1326.5450146750438,-389.4106514960188,
65,1.7920377254486084,0.025433063507080078,39.318896825843225,36.271557834380005,-8.0,6.0,6.0,1327,1326.7725073375218,-190.23294548570553,
66,1.8163468837738037,0.024309158325195312,41.13675951353472,36.33667147481903,-6.0,-2.0,0.0,1313,1319.886253668761,-236.75555330335942,
67,1.8416547775268555,0.025307893753051758,39.51336329122272,36.38032535607667,-17.0,-1.0,-3.0,1294,1306.9431268343806,-374.0910130173015,
68,1.8707668781280518,0.02911210060119629,34.34997747839974,36.348729921946735,-5.0,4.0,13.0,,1306.9431268343806,-374.0910130173015,
69,1.8921396732330322,0.02137279510498047,46.788452099415466,36.466652528934155,-2.0,-2.0,12.0,1284,1295.4715634171903,-455.4138542339579,
70,1.915984869003296,0.023845195770263672,41.93716879636851,36.5347352854693,-18.0,-6.0,2.0,1242,1268.7357817085951,-788.318422325087,
71,1.9413397312164307,0.025354862213134766,39.44016700204991,36.5726816684022,0.0,-4.0,5.0,1355,1311.8678908542975,456.40958276602834,
72,1.9676108360290527,0.02627110481262207,38.06463440089301,36.59260189139194,50.0,-10.0,26.0,1419,1365.4339454271487,1247.6909331899476,
73,1.9948527812957764,0.027241945266723633,36.708098126219795,36.59417912162026,16.0,30.0,33.0,1419,1392.2169727135743,1115.4224634686389,
74,2.023620843887329,0.028768062591552734,34.76076975352638,36.56811513062284,-20.0,58.0,25.0,1457,1424.6084863567871,1120.6882055942851,
75,2.0523808002471924,0.02875995635986328,34.77056736412773,36.542926142637306,-28.0,29.0,22.0,1555,1489.8042431783936,1693.790830007621,
76,2.080059766769409,0.027678966522216797,36.128516546936105,36.53741167160664,-18.0,-19.0,-1.0,1555,1522.4021215891967,1435.7519097836662,
77,2.106898784637451,0.026839017868041992,37.259187534977926,36.54660611200169,40.0,-85.0,-14.0,1579,1550.7010607945983,1245.0736963393329,
78,2.1357057094573975,0.02880692481994629,34.713875439685495,36.52188578913191,40.0,-23.0,-19.0,1630,1590.3505303972993,1310.730222688545,
79,2.1646978855133057,0.028992176055908203,34.49206427525863,36.49470003582835,-5.0,32.0,-20.0,1644,1617.1752651986496,1117.9853498117443,
80,2.190816640853882,0.026118755340576172,38.28666362391602,36.51606369432158,-33.0,52.0,-45.0,1635,1626.087632599325,729.605081287077,
81,2.220289707183838,0.029473066329956055,33.92928271544018,36.48172566756545,2.0,-10.0,-84.0,1644,1635.0438162996625,516.7409850536233,
82,2.2482197284698486,0.027930021286010742,35.803767915524936,36.47330328153008,-13.0,-64.0,-122.0,1607,1621.0219081498312,7.351919962129045,
83,2.2741026878356934,0.025882959365844727,38.635458405873194,36.497912096921475,-35.0,1.0,-120.0,1672,1646.5109540749156,496.0664468030592,
84,2.3029749393463135,0.028872251510620117,34.63533142305056,36.47456104053087,-26.0,46.0,-111.0,1757,1701.7554770374577,1204.7394044595155,
85,2.3309829235076904,0.028007984161376953,35.7041047380697,36.46530360337904,14.0,12.0,-96.0,1499,1600.3777385187288,-1207.4309948609111,
86,2.358422040939331,0.027439117431640625,36.44432086751008,36.4650594792386,36.0,-16.0,-70.0,1677,1638.6888692593643,94.39607332396838,
87,2.38616681098938,0.027744770050048828,36.0428289077941,36.46015006131405,37.0,-26.0,-66.0,1148,1393.3444346296822,-4374.25570375657,
88,2.414301872253418,0.028135061264038086,35.542840678942774,36.44946019855592,41.0,-19.0,-57.0,1480,1436.672217314841,-1417.1316134030576,
89,2.441044807434082,0.026742935180664062,37.39305327722702,36.45979775912137,20.0,51.0,-17.0,1097,1266.8361086574205,-3883.911136413449,
90,2.470104694366455,0.029059886932373047,34.41169617511445,36.43570258591151,22.0,52.0,0.0,1560,1413.4180543287102,580.1111213920533,
91,2.499215841293335,0.029111146926879883,34.35110277557104,36.4114209330987,7.0,34.0,12.0,1565,1489.2090271643551,1591.8073093649018,
92,2.525681734085083,0.026465892791748047,37.78448011819181,36.42580882556313,0.0,40.0,21.0,1841,1665.1045135821776,4118.9634093993955,
93,2.5542097091674805,0.02852797508239746,35.05331160419539,36.410479400421835,7.0,66.0,35.0,1804,1734.552256791089,3276.668396154754,
94,2.5817759037017822,0.027566194534301758,36.276316586087304,36.40904691426612,8.0,65.0,23.0,1780,1757.2761283955444,2050.503378269792,
95,2.608745813369751,0.02696990966796875,37.07835926449788,36.41596644377064,-4.0,39.0,23.0,1691,1724.138064197772,410.8991643073973,
96,2.6367506980895996,0.028004884719848633,35.708056291024256,36.40844774197072,-54.0,61.0,18.0,1635,1679.569032098886,-590.2871713580464,
97,2.6649169921875,0.02816629409790039,35.503428194145826,36.39888232330173,-13.0,28.0,37.0,1626,1652.784516049443,-770.6146568171966,
98,2.69185471534729,0.02693772315979004,37.12266230030535,36.406125279074175,6.0,-19.0,23.0,1555,1603.8922580247215,-1292.8127202841638,
99,2.720852851867676,0.028998136520385742,34.48497455334753,36.385650158200725,-18.0,-7.0,29.0,1551,1577.4461290123609,-1102.4034031549832,
100,2.7482786178588867,0.027425765991210938,36.46206273037068,36.386412698544895,-4.0,-24.0,28.0,1551,1564.2230645061804,-792.2718053335361,
101,2.7760908603668213,0.02781224250793457,35.9553890598613,36.38209449191237,-10.0,-23.0,12.0,1555,1559.6115322530902,-479.0406208277468,
102,2.804273843765259,0.0281829833984375,35.48240389821332,36.37305259141384,-29.0,-10.0,21.0,1565,1562.3057661265452,-191.72136316678427,
103,2.8289756774902344,0.024701833724975586,40.48282451957879,36.40893798400483,-41.0,0.0,21.0,1555,1558.6528830632726,-169.80019360389542,
104,2.8554298877716064,0.02645421028137207,37.80116621754373,36.421836321522214,-21.0,-11.0,10.0,1583,1570.8264415316362,145.1872567588517,
105,2.88268780708313,0.027257919311523438,36.68658596319362,36.42433972281066,-50.0,-24.0,-14.0,1551,1560.913220765818,-109.24748451922498,
106,2.909289836883545,0.02660202980041504,37.591116448730475,36.435008522061885,-23.0,-12.0,18.0,1555,1557.956610382909,-110.1948848583423,
107,2.9382688999176025,0.028979063034057617,34.50767192937711,36.41599991171692,-5.0,-1.0,31.0,1546,1551.9783051914546,-158.24613954937155,
108,2.9648277759552,0.026558876037597656,37.6521957700456,36.42707373287639,-18.0,-10.0,35.0,1583,1567.4891525957273,212.8856617378036,
109,2.9914586544036865,0.026630878448486328,37.55039481458934,36.43707388017633,-52.0,5.0,9.0,1551,1559.2445762978637,-48.350716662991076,
110,3.0199806690216064,0.028522014617919922,35.06063696397225,36.42407420959985,-33.0,27.0,7.0,1569,1564.1222881489318,61.33248388108756,
111,3.0501906871795654,0.030210018157958984,33.10160208349775,36.39116743308888,-23.0,26.0,22.0,1551,1557.561144074466,-77.92594824218926,
112,3.0771567821502686,0.026966094970703125,37.0836044702221,36.39723547713944,-31.0,20.0,4.0,1593,1575.280572037233,289.58715488382745,
113,3.1018896102905273,0.02473282814025879,40.432092695952264,36.42940729583741,-43.0,22.0,30.0,1612,1593.6402860186165,515.9544062251477,
114,3.1270508766174316,0.025161266326904297,39.74362764606667,36.456074588500194,-24.0,0.0,33.0,1597,1595.3201430093081,291.35900848091904,
115,3.152956962585449,0.025906085968017578,38.600968175375954,36.47369798086274,-26.0,1.0,33.0,1583,1589.160071504654,26.787142185863516,
116,3.1808269023895264,0.02786993980407715,35.88095299200137,36.468504436018684,-7.0,-16.0,19.0,1621,1605.0800357523271,299.00531549548185,
117,3.207857847213745,0.02703094482421875,36.99463731301157,36.47293788333635,10.0,0.0,48.0,1630,1617.5400178761636,379.978917546709,
118,3.2364208698272705,0.02856302261352539,35.01030032887598,36.46002938001624,37.0,-12.0,60.0,1597,1607.270008938082,10.211410122114472,
119,3.262666940689087,0.026246070861816406,38.100941099524,36.47322946634166,-3.0,-32.0,29.0,1616,1611.635004469041,88.26092387343536,
120,3.2889058589935303,0.02623891830444336,38.111327166663635,36.48629822342265,-16.0,-47.0,7.0,1607,1609.3175022345204,-0.031080997926423493,
121,3.316478967666626,0.027573108673095703,36.26722006052746,36.48447681401457,26.0,-51.0,16.0,1644,1626.6587511172602,314.4439041783872,
122,3.343026876449585,0.026547908782958984,37.66775033677593,36.49387351906916,5.0,-17.0,33.0,1630,1628.32937555863,188.68628427121234,
123,3.3714439868927,0.028417110443115234,35.190066280728246,36.482884033723266,8.0,-24.0,26.0,1607,1617.664687779315,-93.30239277307834,
124,3.3989179134368896,0.027473926544189453,36.39814638040856,36.48219908747802,12.0,-25.0,28.0,1616,1616.8323438896575,-61.79908375383574,
125,3.425902843475342,0.02698493003845215,37.05772068243464,36.48673231877064,-14.0,-18.0,25.0,1640,1628.4161719448289,183.73559037402717,
126,3.453720808029175,0.027817964553833008,35.947993177747115,36.48239304899125,-20.0,-16.0,9.0,1677,1652.7080859724144,528.4905750560462,
127,3.481837749481201,0.028116941452026367,35.56574607185558,36.47499083463128,24.0,-6.0,8.0,1687,1669.8540429862073,569.1496641837778,
128,3.508413791656494,0.02657604217529297,37.627875264649944,36.48372387099896,0.0,0.0,0.0,1630,1649.9270214931037,-90.33090747736276,
129,3.5350558757781982,0.0266420841217041,37.53460110072039,36.4916438475254,-26.0,3.0,-1.0,1649,1649.463510746552,-53.86429922753933,
130,3.564218759536743,0.029162883758544922,34.29016170964208,36.47363104527755,-28.0,-29.0,-18.0,1630,1639.731755373276,-193.78388234792536,
131,3.5917208194732666,0.027502059936523438,36.36091268465219,36.47276795283087,-24.0,-10.0,-25.0,1668,1653.865877686638,160.07285248121258,
132,3.6185097694396973,0.026788949966430664,37.32882405816965,36.47910560165196,9.0,-8.0,3.0,1696,1674.9329388433189,473.24073591082686,
133,3.6431288719177246,0.024619102478027344,40.61886500096843,36.5070807747708,12.0,-13.0,6.0,1658,1666.4664694216594,64.6711787188074,
134,3.671874761581421,0.02874588966369629,34.7875822143337,36.49361939084443,-5.0,-6.0,22.0,1649,1657.7332347108297,-119.56847089062715,
135,3.698800802230835,0.026926040649414062,37.13876886023943,36.49831586458462,-17.0,0.0,29.0,1710,1683.8666173554147,425.4965933414044,
136,3.725393772125244,0.02659296989440918,37.6039232914048,36.506208019566046,0.0,-7.0,9.0,1635,1659.4333086777074,-246.64583596515945,
137,3.751962900161743,0.026569128036499023,37.637667243963065,36.51422032826979,2.0,3.0,12.0,1649,1654.2166543388537,-221.4942680488553,
138,3.7796590328216553,0.02769613265991211,36.10612399497271,36.511229928848344,28.0,-5.0,13.0,1687,1670.608327169427,185.17275182842425,
139,3.8073678016662598,0.027708768844604492,36.089658317486816,36.50816186951204,8.0,-12.0,-9.0,1682,1676.3041635847135,195.36677094420688,
140,3.8364596366882324,0.029091835021972656,34.37390591706278,36.491977827988556,3.0,-1.0,-19.0,1691,1683.6520817923567,223.97171005000445,
141,3.8650786876678467,0.028619050979614258,34.941759624115896,36.48049920688112,3.0,5.0,-6.0,1771,1727.3260408961783,875.008345444602,
142,3.8929378986358643,0.027859210968017578,35.89477107402653,36.47630753363896,-4.0,-2.0,-7.0,1640,1683.6630204480891,-346.1328889700482,
143,3.921848773956299,0.02891087532043457,34.5890599615705,36.46239522278771,-13.0,3.0,-4.0,1710,1696.8315102240445,54.67639674689923,
144,3.9491708278656006,0.027322053909301758,36.600469471277606,36.46335047953024,27.0,-22.0,-5.0,1621,1658.9157551120222,-666.529020355554,
