Index,Time,Difference,Hz,AveHz,0x6103 Linear-Acceleration-X,0x6103 Linear-Acceleration-Y,0x6103 Linear-Acceleration-Z,0x6103 Range,0x6103 Smoothed Range,0x6103 Velocity,
0,1.1920928955078125e-06,1.1920928955078125e-06,838860.8,0.0,-216.0,134.0,-210.0,1088,1088.0,0.0,
1,0.028177976608276367,0.02817678451538086,35.490210015061514,35.48870857200877,54.0,85.0,-145.0,1046,1067.0,-372.64720515814594,
2,0.055908918380737305,0.027730941772460938,36.06080198087901,35.77246811287042,159.0,207.0,-65.0,1139,1103.0,462.77083307674934,
3,0.08282089233398438,0.02691197395324707,37.15818102890757,36.22274423103496,35.0,214.0,-185.0,1162,1132.5,779.4685867147614,
4,0.11294007301330566,0.03011918067932129,33.2014343499909,35.417012697776045,-128.0,271.0,-230.0,1153,1142.75,559.891644401084,
5,0.13987207412719727,0.0269320011138916,37.130549481679516,35.746949712442856,-258.0,552.0,-144.0,1167,1154.875,505.0497784332241,
6,0.16881895065307617,0.028946876525878906,34.54604157743881,35.54103361494073,-267.0,289.0,-66.0,1158,1156.4375,279.5139841989861,
7,0.19683003425598145,0.028011083602905273,35.700154059598084,35.56367820825738,-182.0,163.0,-59.0,1135,1145.71875,-51.573521063665424,
8,0.22363615036010742,0.026806116104125977,37.304919374205085,35.77239183878857,-25.0,54.0,4.0,1130,1137.859375,-172.38343588515426,
9,0.2520899772644043,0.028453826904296875,35.14465746078563,35.701538385877036,17.0,-52.0,80.0,1144,1140.9296875,-32.23917738754294,
10,0.2790820598602295,0.026992082595825195,37.04790085944194,35.83175502219033,-46.0,-112.0,14.0,1065,1102.96484375,-719.3784723908734,
11,0.30693697929382324,0.02785491943359375,35.90030128731854,35.83797568252592,-45.0,-77.0,23.0,1121,1111.982421875,-197.8223504107202,
12,0.33664393424987793,0.029706954956054688,33.66215088282504,35.64597124477775,-85.0,-63.0,80.0,1121,1116.4912109375,-23.02340634500696,
13,0.36526918411254883,0.0286252498626709,34.93419288207025,35.59019092066186,-133.0,71.0,60.0,1135,1125.74560546875,150.1356986082283,
14,0.3934190273284912,0.028149843215942383,35.524176540836294,35.58546747234593,-166.0,169.0,19.0,1195,1160.372802734375,690.1191836933273,
15,0.42316198348999023,0.029742956161499023,33.62140584043414,35.44741868418532,-307.0,270.0,41.0,1065,1112.6864013671875,-456.5823348713587,
16,0.45000600814819336,0.026844024658203125,37.25223816967458,35.55508084401169,-299.0,261.0,22.0,,1112.6864013671875,-456.5823348713587,
17,0.4750559329986572,0.025049924850463867,39.920279440737815,35.78525983812532,-155.0,173.0,-8.0,1027,1069.8432006835938,-1083.4474391480153,
18,0.5012719631195068,0.02621603012084961,38.14460066570872,35.90865104041071,-155.0,76.0,-17.0,1121,1095.4216003417969,-53.88479925897826,
19,0.5303151607513428,0.029043197631835938,34.431470414395484,35.827751884522925,33.0,-9.0,44.0,1126,1110.7108001708984,236.27241615825633,
20,0.5572161674499512,0.0269010066986084,37.17333002454999,35.89271304084404,42.0,-43.0,41.0,1162,1136.3554000854492,594.7837960646996,
21,0.5820920467376709,0.024875879287719727,40.1995840401775,36.076768472777275,-101.0,19.0,29.0,1130,1133.1777000427246,233.520788071358,
22,0.6073849201202393,0.02529287338256836,39.53682861074977,36.220853154610474,-117.0,74.0,8.0,1130,1131.5888500213623,85.35134854428523,
23,0.634484052658081,0.027099132537841797,36.90155021027256,36.249926067715585,-109.0,181.0,4.0,1112,1121.7944250106812,-138.03905888405734,
24,0.6602189540863037,0.025734901428222656,38.857735779136554,36.35157677836484,-144.0,190.0,-2.0,1102,1111.8972125053406,-261.3111636832738,
25,0.6851010322570801,0.024882078170776367,40.18956910016002,36.49096822644824,-103.0,214.0,-57.0,1121,1116.4486062526703,-39.19630508646503,
26,0.7108640670776367,0.02576303482055664,38.815302892890855,36.575206434172486,-56.0,207.0,-44.0,1130,1123.2243031263351,111.902210687625,
27,0.7353689670562744,0.024504899978637695,40.8081649332075,36.716262460846835,-77.0,114.0,-45.0,1181,1152.1121515631676,645.3811471316916,
28,0.7605221271514893,0.025153160095214844,39.756436018957345,36.81681176703311,-66.0,77.0,-4.0,1289,1220.5560757815838,1683.2338206037605,
29,0.7912929058074951,0.03077077865600586,32.498365126838266,36.64888157995832,-50.0,78.0,28.0,1386,1303.278037890792,2185.7811746186426,
30,0.8177051544189453,0.026412248611450195,37.86122168963992,36.68804071721641,-88.0,68.0,31.0,1419,1361.139018945396,2188.2343027535308,
31,0.847905158996582,0.03020000457763672,33.11257776233934,36.56069275092707,-208.0,114.0,10.0,1424,1392.569509472698,1614.4894322236446,
32,0.8752100467681885,0.027304887771606445,36.62347958960925,36.562651580798914,-165.0,119.0,-6.0,1247,1319.784754736349,-525.5707736488741,
33,0.9062528610229492,0.031042814254760742,32.21357418799874,36.4136781457999,-29.0,209.0,70.0,1186,1252.8923773681745,-1340.2066673050854,
34,0.933283805847168,0.02703094482421875,36.99463731301157,36.4305046192645,-125.0,340.0,-18.0,1134,1193.4461886840872,-1769.698428656873,
35,0.9596669673919678,0.026383161544799805,37.902963157086184,36.47098544520867,-37.0,160.0,0.0,1130,1161.7230943420436,-1486.0488523660608,
36,0.9853808879852295,0.02571392059326172,38.889441085932575,36.53409604240226,-130.0,144.0,-32.0,1158,1159.8615471710218,-779.221690701099,
37,1.0108470916748047,0.025466203689575195,39.26772958347767,36.60296429076843,-105.0,39.0,-41.0,1162,1160.930773585511,-368.6177984967149,
38,1.0391910076141357,0.028343915939331055,35.28094008394808,36.566906104435674,-88.0,51.0,-24.0,1148,1154.4653867927555,-298.3613612757347,
39,1.065129041671753,0.025938034057617188,38.553423045812195,36.61528178669159,-90.0,95.0,-10.0,1158,1156.2326933963777,-115.11282106731383,
40,1.0935819149017334,0.02845287322998047,35.14583542818837,36.57704965210064,-57.0,229.0,14.0,1191,1173.6163466981889,247.9250985094119,
41,1.1196789741516113,0.02609705924987793,38.31849368256608,36.61763857900966,7.0,299.0,-17.0,1186,1179.8081733490944,242.59328445784058,
42,1.1475279331207275,0.02784895896911621,35.907984966654396,36.600416240657495,57.0,233.0,-16.0,1209,1194.4040866745472,383.3515603613949,
43,1.1767430305480957,0.029215097427368164,34.22887780833544,36.54153785807573,-23.0,180.0,16.0,1200,1197.2020433372736,239.5612385414373,
44,1.2044517993927002,0.027708768844604492,36.089658317486816,36.53114223598267,-46.0,63.0,76.0,1299,1248.1010216686368,1038.24398761475,
45,1.2366821765899658,0.032230377197265625,31.026630370458044,36.38768379769429,0.0,-73.0,-6.0,1350,1299.0505108343184,1309.517477761005,
46,1.262134075164795,0.0254518985748291,39.28979981827209,36.446207186026456,41.0,-8.0,-74.0,1317,1308.0252554171593,831.0666979204732,
47,1.2876060009002686,0.025471925735473633,39.25890843059989,36.501849142624785,88.0,33.0,-37.0,1238,1273.0126277085797,-271.7454236026699,
48,1.3168690204620361,0.029263019561767578,34.1728234124721,36.45009431777713,98.0,38.0,69.0,1242,1257.5063138542898,-400.81997436184287,
49,1.346548080444336,0.029679059982299805,33.69378951342754,36.38934302578405,32.0,129.0,3.0,1238,1247.753156927145,-364.72039547824374,
50,1.3751020431518555,0.02855396270751953,35.02140877058215,36.360937902030585,-83.0,108.0,-90.0,1186,1216.8765784635725,-723.030835643985,
51,1.4047520160675049,0.029649972915649414,33.726843624609,36.30534031392286,-68.0,161.0,-64.0,1144,1180.4382892317863,-975.9896592563571,
52,1.4323430061340332,0.02759099006652832,36.24371570533592,36.304153249123374,70.0,216.0,-254.0,1162,1171.2191446158931,-655.062857880583,
53,1.4591460227966309,0.026803016662597656,37.3092332325209,36.322615538107044,111.0,60.0,-13.0,1186,1178.6095723079466,-189.6658337148401,
54,1.4887912273406982,0.029645204544067383,33.73226851963552,36.27103586340687,-47.0,110.0,11.0,1205,1191.8047861539733,127.71933145667283,
55,1.5190820693969727,0.030290842056274414,33.01327834142732,36.20607543727591,-88.0,110.0,-3.0,1148,1169.9023930769868,-297.6752337686171,
56,1.5451850891113281,0.02610301971435547,38.3097438895181,36.241612991623484,-4.0,135.0,-11.0,1162,1165.9511965384934,-224.5222806077244,
57,1.5703599452972412,0.025174856185913086,39.72217329128429,36.29741077559827,24.0,179.0,-22.0,1134,1149.9755982692468,-429.55388174533914,
58,1.5964748859405518,0.026114940643310547,38.2922562857195,36.330042214118336,-14.0,140.0,-47.0,1126,1137.9877991346234,-444.2968792550324,
59,1.6239581108093262,0.027483224868774414,36.385831894719495,36.33098637661065,24.0,118.0,-21.0,1055,1096.4938995673117,-977.0434667838049,
60,1.6497600078582764,0.025801897048950195,38.75684016965284,36.368926216057446,-11.0,69.0,-67.0,1065,1080.746949783656,-793.6727413542499,
61,1.6773881912231445,0.027628183364868164,36.194924103174806,36.36606023529893,28.0,84.0,-19.0,1144,1112.373474891828,175.52346729159444,
62,1.7048630714416504,0.02747488021850586,36.39688297263056,36.366556962004076,4.0,74.0,-33.0,1266,1189.1867374459139,1485.643397609302,
63,1.734018087387085,0.02915501594543457,34.29941530032301,36.33180095308689,-10.0,56.0,-55.0,1252,1220.593368722957,1281.436243482358,
64,1.761518955230713,0.02750086784362793,36.362488838027865,36.33228005293742,-24.0,97.0,-12.0,1270,1245.2966843614786,1089.8551413251903,
65,1.7871928215026855,0.025673866271972656,38.95011329445414,36.36988645989944,-68.0,136.0,23.0,1289,1267.1483421807393,970.4898445285198,
66,1.8179810047149658,0.030788183212280273,32.479993804932825,36.30400968372488,-112.0,97.0,23.0,1284,1275.5741710903696,622.0803576573688,
67,1.843520164489746,0.025539159774780273,39.15555597046276,36.34351350778114,-106.0,109.0,58.0,1294,1284.7870855451847,491.40857262198267,
68,1.8682830333709717,0.024762868881225586,40.38304304709088,36.39705482809345,-105.0,154.0,58.0,1275,1279.8935427725924,146.89621209180257,
69,1.892660140991211,0.024377107620239258,41.022093989926155,36.45662446500501,-176.0,137.0,37.0,1317,1298.4467713862962,453.9942500498741,
70,1.9188392162322998,0.026179075241088867,38.19844630838866,36.480388459772655,-190.0,152.0,20.0,1308,1303.223385693148,318.2267475930168,
71,1.9454319477081299,0.026592731475830078,37.604260431422475,36.49575102518673,-56.0,128.0,47.0,1355,1329.111692846574,645.868695959553,
72,1.9803259372711182,0.03489398956298828,28.658230615758836,36.3576513567336,-25.0,75.0,34.0,1382,1355.555846423287,701.8556737997691,
73,2.0116329193115234,0.03130698204040527,31.941756593126243,36.28892692061535,-60.0,99.0,64.0,1429,1392.2779232116436,937.4116560837736,
74,2.037343978881836,0.0257110595703125,38.893768545994064,36.32179973880195,-45.0,70.0,44.0,1443,1417.6389616058218,961.8990067365046,
75,2.0630741119384766,0.025730133056640625,38.86493699036323,36.35351709664446,6.0,86.0,32.0,1490,1453.819480802911,1184.026302805,
76,2.0920441150665283,0.028970003128051758,34.51846365289814,36.328105823706856,90.0,87.0,33.0,1513,1483.4097404014556,1102.718301618592,
77,2.1192851066589355,0.027240991592407227,36.70938323253718,36.33300670969699,118.0,88.0,-19.0,1466,1474.7048702007278,391.5839427152915,
78,2.14753794670105,0.028252840042114258,35.39467177492173,36.32066204921783,68.0,80.0,-29.0,1400,1437.352435100364,-465.24661882807703,
79,2.174018144607544,0.02648019790649414,37.764068211693946,36.33824317241895,32.0,113.0,-20.0,1363,1400.176217550182,-934.5859171229608,
80,2.201728105545044,0.0277099609375,36.08810572687225,36.33509505488907,29.0,93.0,-7.0,1359,1379.5881087750909,-838.7858816573971,
81,2.2297749519348145,0.028046846389770508,35.654632471076276,36.326535971585336,39.0,101.0,-24.0,1350,1364.7940543875454,-683.1312268012214,
82,2.257581949234009,0.027806997299194336,35.96217129236652,36.322048033659364,53.0,122.0,-46.0,1369,1366.8970271937728,-303.7518792602415,
83,2.2846858501434326,0.027103900909423828,36.895058144649106,36.32884582131467,179.0,186.0,-2.0,1372,1369.4485135968864,-104.80732003104205,
84,2.313040018081665,0.028354167938232422,35.26818357634159,36.315843800085204,115.0,132.0,-13.0,1386,1377.724256798443,93.53155521605989,
85,2.338667154312134,0.02562713623046875,39.02113724322715,36.34548843056755,23.0,79.0,-19.0,1419,1398.3621283992215,449.422387679068,
86,2.3659868240356445,0.027319669723510742,36.60366359185597,36.34846953767498,-28.0,93.0,-3.0,1490,1444.1810641996108,1063.2816499266805,
87,2.3939359188079834,0.027949094772338867,35.779334112448495,36.34182490704265,-17.0,89.0,29.0,1518,1481.0905320998054,1191.9389169202182,
88,2.4211840629577637,0.027248144149780273,36.69974712784481,36.34585298422027,13.0,80.0,47.0,1536,1508.5452660499027,1099.7603551755226,
89,2.4526312351226807,0.03144717216491699,31.799361632764462,36.28755873507752,35.0,132.0,74.0,1494,1501.2726330249513,434.2476337963545,
90,2.478668212890625,0.026036977767944336,38.406915307626804,36.30982135162088,28.0,136.0,78.0,1466,1483.6363165124758,-121.5544404183972,
91,2.5033130645751953,0.024644851684570312,40.57642597322189,36.351825621715605,-6.0,85.0,84.0,1457,1470.318158256238,-330.978851501144,
92,2.527277946472168,0.023964881896972656,41.72772493931314,36.40280252056287,12.0,51.0,70.0,1443,1456.659079128119,-450.47057414180233,
93,2.5559709072113037,0.028692960739135742,34.85175367894505,36.385390669985284,35.0,46.0,23.0,1471,1463.8295395640594,-100.28372663189306,
94,2.580688953399658,0.024718046188354492,40.45627200385821,36.4243818985506,19.0,121.0,19.0,1471,1467.4147697820297,22.380661131383043,
95,2.6083731651306152,0.02768421173095703,36.12167143201626,36.42116905279649,41.0,183.0,149.0,1499,1483.207384891015,296.4181575752224,
96,2.6353349685668945,0.026961803436279297,37.08950710079055,36.42800674109568,40.0,114.0,243.0,1480,1481.6036924455075,118.46899761504433,
97,2.662808895111084,0.027473926544189453,36.39814638040856,36.42769865238619,-24.0,-23.0,173.0,1546,1513.8018462227537,645.2110559890793,
98,2.690859079360962,0.02805018424987793,35.65038971194465,36.41959579067719,72.0,-22.0,136.0,1555,1534.4009231113769,689.788087387403,
99,2.7198269367218018,0.028967857360839844,34.52102057613169,36.39937477761889,74.0,110.0,229.0,1546,1540.2004615556884,444.99703667777464,
100,2.7473349571228027,0.027508020401000977,36.353033966908484,36.39891078469982,-14.0,157.0,83.0,1583,1561.6002307778442,611.4717870474033,
101,2.774308919906616,0.026973962783813477,37.072787858967445,36.4054627353466,-26.0,131.0,-39.0,1579,1570.3001153889222,467.00038181569687,
102,2.8036398887634277,0.029330968856811523,34.09365728359737,36.38127721352548,91.0,138.0,-53.0,1560,1565.150057694461,145.70803989499305,
103,2.831027030944824,0.027387142181396484,36.51348480891443,36.382556179841515,66.0,135.0,-72.0,1513,1539.0750288472304,-403.1910649051847,
104,2.857367992401123,0.026340961456298828,37.96368639235351,36.39713200280024,66.0,99.0,-111.0,1480,1509.5375144236152,-762.2719996464656,
105,2.8841919898986816,0.026823997497558594,37.28005119635937,36.40534346109481,-18.0,104.0,-108.0,1457,1483.2687572118075,-870.786306683696,
106,2.9136719703674316,0.02947998046875,33.92132505175984,36.38021063388023,-30.0,93.0,-84.0,1438,1460.6343786059037,-819.2872103595778,
107,2.941164016723633,0.027492046356201172,36.37415662128176,36.38015404499431,13.0,80.0,-62.0,1443,1451.8171893029519,-570.0025175123197,
108,2.9692418575286865,0.02807784080505371,35.61527422792463,36.37292116375083,36.0,132.0,-21.0,1438,1444.908594651476,-408.02700527710226,
109,3.000579833984375,0.03133797645568848,31.910165017003827,36.32631225654221,82.0,133.0,11.0,1461,1452.954297325738,-75.64365263182682,
110,3.0265140533447266,0.025934219360351562,38.55909391777598,36.3454449776747,32.0,110.0,-13.0,1457,1454.977148662869,1.17783102915282,
111,3.0527470111846924,0.02623295783996582,38.11998654900072,36.360694021914306,5.0,158.0,-9.0,1485,1469.9885743314344,286.7065877980946,
112,3.0781068801879883,0.0253598690032959,39.4323803435276,36.386000993298794,-9.0,147.0,-65.0,1433,1451.4942871657172,-221.28358895144345,
113,3.104761838912964,0.026654958724975586,37.51647152479003,36.395706293389466,45.0,116.0,-41.0,1461,1456.2471435828586,-21.486593258171254,
114,3.1299281120300293,0.02516627311706543,39.73572071431955,36.42256177125459,21.0,144.0,-64.0,1410,1433.1235717914292,-470.1591919399641,
115,3.159234046936035,0.02930593490600586,34.122781041019216,36.401228364682915,120.0,169.0,8.0,1433,1433.0617858957146,-236.1337492654282,
116,3.1855051517486572,0.02627110481262207,38.06463440089301,36.4149466015846,-8.0,81.0,-26.0,1443,1438.0308929478574,-23.493253013356338,
117,3.2114620208740234,0.02595686912536621,38.52544754801554,36.43200487488797,-1.0,82.0,3.0,1466,1452.0154464739287,257.63396516885956,
118,3.2408440113067627,0.029381990432739258,34.03445393834644,36.410268309217514,94.0,81.0,16.0,1457,1454.5077232369645,171.22862193100568,
119,3.2696919441223145,0.028847932815551758,34.66452887261668,36.394865948737944,82.0,30.0,14.0,1447,1450.7538616184822,20.55138873666037,
120,3.2972300052642822,0.027538061141967773,36.313377141719265,36.394185364202905,16.0,38.0,-24.0,1386,1418.376930809241,-577.5821552153332,
121,3.3259730339050293,0.02874302864074707,34.79104489992286,36.38033103892419,26.0,62.0,9.0,1391,1404.6884654046205,-526.9090848592629,
122,3.3537559509277344,0.027782917022705078,35.99334077061701,36.37712516507103,42.0,53.0,23.0,1415,1409.8442327023104,-170.66789778975422,
123,3.3808441162109375,0.027088165283203125,36.91649063512181,36.38144669558192,-26.0,164.0,29.0,1438,1423.9221163511552,174.51908104758002,
124,3.4074409008026123,0.026596784591674805,37.598529873156735,36.39094663998198,47.0,179.0,40.0,1424,1423.9610581755776,87.99161819822059,
125,3.435847043991089,0.028406143188476562,35.203652722755656,36.38113059154102,8.0,129.0,46.0,1415,1419.480529087789,-34.86968591124867,
126,3.463207960128784,0.027360916137695312,36.54848379226211,36.38245275785128,-9.0,134.0,49.0,1452,1435.7402645438945,279.6994959363472,
127,3.4929051399230957,0.029697179794311523,33.67323115953082,36.35941856777599,-65.0,140.0,32.0,1419,1427.370132271947,-1.0749514463922765,
128,3.5210378170013428,0.02813267707824707,35.545852860665946,36.35291827368385,10.0,136.0,103.0,1438,1432.6850661359736,93.9244528242312,
129,3.549410104751587,0.02837228775024414,35.24565973681115,36.34406737821251,-44.0,164.0,86.0,1419,1425.8425330679868,-73.62256971395462,
130,3.577286958694458,0.027876853942871094,35.872053641681774,36.34038909963318,-3.0,150.0,-4.0,1410,1417.9212665339933,-178.88733386571414,
131,3.6072468757629395,0.029959917068481445,33.37792950875769,36.31578445051484,-27.0,140.0,-33.0,1429,1423.4606332669966,3.0026292358147373,
132,3.6356561183929443,0.028409242630004883,35.19981201272271,36.30706417260043,-122.0,127.0,-97.0,1466,1444.7303166334982,375.8457426534025,
133,3.6638190746307373,0.02816295623779297,35.507636043479735,36.3009191477078,-118.0,85.0,-100.0,1424,1434.365158316749,3.9017368046141883,
134,3.6914498805999756,0.02763080596923828,36.1914886273427,36.30010005126247,406.0,348.0,312.0,1400,1417.1825791583747,-308.98069069705497,
135,3.7192280292510986,0.027778148651123047,35.99951935456184,36.29785507590496,70.0,46.0,-77.0,1299,1358.0912895791873,-1218.1193567945138,
136,3.7496719360351562,0.030443906784057617,32.84729542410977,36.26983968730988,-244.0,155.0,-174.0,1270,1314.0456447895936,-1332.449831671851,
137,3.779085874557495,0.029413938522338867,33.99748725389273,36.25215317872123,-285.0,47.0,-207.0,1289,1301.5228223947968,-879.0971632108584,
138,3.8050310611724854,0.025945186614990234,38.54279465549246,36.267772268191834,-206.0,25.0,-147.0,1336,1318.7614111973985,-107.33688742085428,
139,3.83105206489563,0.02602100372314453,38.43049294484149,36.2824617482161,121.0,49.0,26.0,1359,1338.8807055986993,332.92875706176153,
140,3.8571841716766357,0.02613210678100586,38.26710216593982,36.29590752446362,178.0,25.0,49.0,1327,1332.9403527993495,52.80433479365922,
141,3.8828518390655518,0.025667667388916016,38.95951996135912,36.31351538613771,49.0,34.0,-36.0,1345,1338.9701763996748,143.86168385700245,
142,3.9110500812530518,0.0281982421875,35.46320346320346,36.30738473042129,-53.0,85.0,0.0,1331,1334.9850881998373,1.2688451036771227,
