Index,Time,Difference,Hz,AveHz,0x6103 Linear-Acceleration-X,0x6103 Linear-Acceleration-Y,0x6103 Linear-Acceleration-Z,0x6103 Range,0x6103 Smoothed Range,0x6103 Velocity,
0,0.0,0.0,0,0,25.0,-40.0,170.0,1378,1336.0,,
1,0.027812957763671875,0.027812957763671875,35.95446440817446,35.95446440817446,22.0,-33.0,125.0,1359,1347.5,206.73817034700315,
2,0.05608201026916504,0.028269052505493164,35.37437272811612,35.6620597300457,26.0,-30.0,105.0,1280,1313.75,-493.57345461345795,
3,0.08325672149658203,0.027174711227416992,36.7989190991323,36.03312676830735,22.0,-24.0,67.0,1252,1282.875,-814.8700408995837,
4,0.11060500144958496,0.02734827995300293,36.56537090151429,36.164729872755764,22.0,-19.0,33.0,1205,1243.9375,-1119.3170851886482,
5,0.13976693153381348,0.029161930084228516,34.29128309106071,35.77384110196597,19.0,-12.0,-20.0,1186,1214.96875,-1056.3463461164065,
6,0.16554689407348633,0.02577996253967285,38.789815868083494,36.24350691434052,21.0,-9.0,-47.0,1181,1197.984375,-857.5835625004436,
7,0.1926279067993164,0.027081012725830078,36.9262409099713,36.33949055622942,22.0,-4.0,-88.0,1191,1194.4921875,-493.268459714117,
8,0.2196969985961914,0.027069091796875,36.94250281848929,36.41378831353177,21.0,2.0,-122.0,1186,1190.24609375,-325.0648950205309,
9,0.24886298179626465,0.029165983200073242,34.28651772649614,36.164478682361775,21.0,5.0,-163.0,961,1075.623046875,-2127.5450117826085,
10,0.2759850025177002,0.027122020721435547,36.87040911408428,36.23385295858116,22.0,7.0,-189.0,1410,1242.8115234375,2018.3812591186293,
11,0.3031880855560303,0.027203083038330078,36.760539185612366,36.28110906741802,19.0,0.0,-209.0,723,982.90576171875,-3767.9473395549558,
12,0.33193302154541016,0.028744935989379883,34.78873636627545,36.15187167619097,19.0,-6.0,-241.0,1172,1077.452880859375,-239.38626879045842,
13,0.3572428226470947,0.02530980110168457,39.5103855610087,36.38981436680159,34.0,10.0,-242.0,888,982.7264404296875,-1991.032226494667,
14,0.39043092727661133,0.0331881046295166,30.131277792544594,35.857815101008434,29.0,20.0,-253.0,902,942.3632202148438,-1603.6138136948878,
15,0.4198899269104004,0.029458999633789062,33.94548397539657,35.72364812457343,24.0,16.0,-260.0,971,956.6816101074219,-558.7845695214485,
16,0.44701480865478516,0.027124881744384766,36.866520172277404,35.79299765962848,25.0,4.0,-250.0,999,977.8408050537109,110.64065889753363,
17,0.47977304458618164,0.032758235931396484,30.526674332959722,35.43342043040997,14.0,-26.0,-243.0,1139,1058.4204025268555,1285.2338944206006,
18,0.507469892501831,0.027696847915649414,36.105191574344275,35.47008456257344,28.0,-42.0,-204.0,1181,1119.7102012634277,1749.056909678773,
19,0.5355319976806641,0.028062105178833008,35.635245240057436,35.47873905254423,40.0,36.0,-177.0,1139,1129.3551006317139,1046.3776319916622,
20,0.5632739067077637,0.02774190902709961,36.04654600457209,35.50670421943821,19.0,42.0,-167.0,1177,1153.177550315857,952.5473302363646,
21,0.5891389846801758,0.02586507797241211,38.662168390391386,35.64523914743176,2.0,0.0,-164.0,1144,1148.5887751579285,387.5676661874447,
22,0.6154739856719971,0.02633500099182129,37.97227880532696,35.74480889875401,13.0,-18.0,-123.0,1126,1137.2943875789642,-20.652983948203484,
23,0.6407318115234375,0.02525782585144043,39.59168955719801,35.89645400204806,17.0,-10.0,-93.0,1065,1101.1471937894821,-725.8907294126277,
24,0.6679329872131348,0.027201175689697266,36.76311683758436,35.93174833322268,12.0,-21.0,-47.0,1008,1054.573596894741,-1219.0406568002747,
25,0.6939349174499512,0.026001930236816406,38.458683293599854,36.026433273986505,-49.0,-229.0,-56.0,1004,1029.2867984473705,-1095.7688148983952,
26,0.7189781665802002,0.025043249130249023,39.930920896048136,36.16243330957918,5.0,-38.0,25.0,1027,1028.1433992236853,-570.7128994259872,
27,0.7443509101867676,0.025372743606567383,39.41237161838359,36.27321419305491,-29.0,40.0,63.0,1027,1027.5716996118426,-296.62246849100734,
28,0.7693808078765869,0.025029897689819336,39.95222083575436,36.39290155583314,7.0,31.0,120.0,1079,1053.2858498059213,365.35746933329006,
29,0.7993929386138916,0.030012130737304688,33.31986018430251,36.27752835831223,76.0,-47.0,86.0,1055,1054.1429249029607,196.95754586704422,
30,0.8299310207366943,0.030538082122802734,32.7459987820683,36.14758245012975,15.0,-41.0,73.0,1051,1052.5714624514803,72.74921917240165,
31,0.8563997745513916,0.026468753814697266,37.78039597182439,36.19804782905127,1.0,-28.0,109.0,1032,1042.2857312257402,-157.9248896979102,
32,0.8859448432922363,0.029545068740844727,33.84659581507573,36.11963006758484,23.0,-19.0,148.0,1069,1055.64286561287,147.08431957546273,
33,0.9151978492736816,0.029253005981445312,34.18452109278216,36.057777043717294,28.0,-43.0,148.0,1027,1041.321432806435,-171.24350113748915,
34,0.9420969486236572,0.026899099349975586,37.175965893479166,36.089703983939025,-25.0,-6.0,136.0,1051,1046.1607164032175,4.330770402684749,
35,0.9676649570465088,0.025568008422851562,39.11137635210742,36.16954375078998,-35.0,-32.0,118.0,1032,1039.0803582016088,-136.29589196408295,
36,0.9934117794036865,0.025746822357177734,38.8397444207797,36.238748871701176,23.0,-64.0,103.0,1013,1026.0401791008044,-321.38655772025896,
37,1.0233979225158691,0.029986143112182617,33.34873699024418,36.15406987444443,71.0,0.0,70.0,1008,1017.0200895504022,-311.0975758825357,
38,1.0482430458068848,0.024845123291015625,40.2493474589283,36.251134841299624,-48.0,80.0,85.0,1036,1026.510044775201,35.43346466503371,
39,1.0770058631896973,0.0287628173828125,34.76710875331565,36.211502028871294,-50.0,46.0,72.0,1004,1015.2550223876005,-177.93556135283842,
40,1.1044909954071045,0.027485132217407227,36.383306876241534,36.21577737286703,-22.0,-4.0,65.0,,1015.2550223876005,-177.93556135283842,
41,1.1263818740844727,0.021890878677368164,45.681126588758076,36.39973346812328,24.0,-47.0,36.0,994,1004.6275111938003,-331.70612276013605,
42,1.155411958694458,0.02903008460998535,34.4470232668917,36.35067101733768,40.0,-64.0,25.0,1041,1022.8137555969001,147.3779306654119,
43,1.1826648712158203,0.027252912521362305,36.69332586805707,36.35856703496614,11.0,-82.0,-16.0,1069,1045.90687779845,497.3706944588736,
44,1.2104451656341553,0.02778029441833496,35.99673872930595,36.350262902614254,-31.0,-60.0,-21.0,1027,1036.4534388992251,78.53886215500825,
45,1.2390129566192627,0.028567790985107422,35.00445661063912,36.31923278896597,7.0,-32.0,40.0,1027,1031.7267194496126,-43.45869186480955,
46,1.2670989036560059,0.028085947036743164,35.60499486422017,36.303401310879956,38.0,-19.0,54.0,1079,1055.3633597248063,399.0618818704411,
47,1.2942688465118408,0.02716994285583496,36.80537737256382,36.313939044943254,39.0,-5.0,8.0,1060,1057.6816798624031,242.19426470255374,
48,1.3202807903289795,0.026011943817138672,38.443878205715755,36.35590273796202,9.0,-38.0,-5.0,1079,1068.3408399312016,325.9868580813346,
49,1.3498499393463135,0.029569149017333984,33.81903210720679,36.300331297365574,4.0,-54.0,21.0,1093,1080.6704199656008,371.4806605665287,
50,1.376006841659546,0.026156902313232422,38.23082672500228,36.33702862966658,23.0,-17.0,9.0,1083,1081.8352099828003,208.00577294254748,
51,1.4050869941711426,0.02908015251159668,34.38771511260874,36.29668498218844,15.0,6.0,6.0,1107,1094.4176049914001,320.34279396629483,
52,1.4314448833465576,0.02635788917541504,37.939305129666316,36.32693134396473,-32.0,12.0,-5.0,1083,1088.7088024957002,51.877397078466814,
53,1.4577410221099854,0.026296138763427734,38.02839683028995,36.35762401972193,-38.0,-13.0,3.0,1074,1081.35440124785,-113.89934601197805,
54,1.4873847961425781,0.029643774032592773,33.733896328467445,36.30533278277752,23.0,-9.0,-6.0,1041,1061.177200623925,-397.2774700290771,
55,1.516892910003662,0.029508113861083984,33.888984050547,36.258327557129405,33.0,-28.0,-4.0,1069,1065.0886003119626,-132.36205419292833,
56,1.5430848598480225,0.02619194984436035,38.17966993455128,36.29093995874952,21.0,-15.0,25.0,1032,1048.5443001559813,-382.0089867232202,
57,1.5693578720092773,0.026273012161254883,38.06187101282249,36.32058755790473,-2.0,-18.0,44.0,1018,1033.2721500779908,-481.6477965400817,
58,1.5932660102844238,0.023908138275146484,41.82676160274437,36.403211783602956,-3.0,-23.0,23.0,999,1016.1360750389954,-599.19716100144,
59,1.6191680431365967,0.02590203285217285,38.607008403825446,36.4384661926178,3.0,41.0,4.0,1018,1017.0680375194977,-281.6084388423187,
60,1.6476638317108154,0.02849578857421875,35.09290495314592,36.41519516617678,-24.0,43.0,0.0,1032,1024.534018759749,-9.802734398105258,
61,1.6750669479370117,0.02740311622619629,36.4922000748236,36.41645492147446,-48.0,-4.0,23.0,1046,1035.2670093798745,190.93385335636012,
62,1.7027668952941895,0.027699947357177734,36.10115164139023,36.41132569075943,-13.0,-35.0,15.0,1022,1028.6335046899371,-24.271652684470794,
63,1.7297890186309814,0.027022123336791992,37.00671437016384,36.42062663217767,12.0,-66.0,3.0,1046,1037.3167523449686,148.5334065453363,
64,1.7574989795684814,0.0277099609375,36.08810572687225,36.41538387448391,-3.0,-51.0,25.0,1055,1046.1583761724842,233.80543101497614,
65,1.7842319011688232,0.026732921600341797,37.407059914738774,36.430242031554016,2.0,-42.0,22.0,1074,1060.079188086242,377.27103816736394,
66,1.8115479946136475,0.02731609344482422,36.60845581817547,36.43292929375352,9.0,-24.0,17.0,1069,1064.539594043121,270.27980628544697,
67,1.8376898765563965,0.026141881942749023,38.25279305407353,36.458817591981145,10.0,-4.0,3.0,1046,1055.2697970215604,-42.157910416789576,
68,1.8646657466888428,0.02697587013244629,37.07016660038004,36.467661896374814,-4.0,6.0,24.0,1069,1062.1348985107802,106.16627275855271,
69,1.8901231288909912,0.025457382202148438,39.281336629954296,36.50555825983939,3.0,0.0,45.0,1079,1070.56744925539,218.70406860337295,
70,1.9149959087371826,0.024872779846191406,40.20459338215559,36.55360289837931,-5.0,0.0,35.0,1069,1069.783724627695,93.5973693116538,
71,1.9488840103149414,0.03388810157775879,29.508882275551052,36.43110601976068,0.0,11.0,41.0,1079,1074.3918623138475,114.78918090092952,
72,1.9828128814697266,0.033928871154785156,29.473423841245747,36.31204975157878,-4.0,30.0,42.0,1074,1074.1959311569237,54.507209434605336,
73,2.00960111618042,0.02678823471069336,37.32982075152637,36.32561676654947,23.0,-34.0,20.0,1055,1064.5979655784618,-151.89156259435026,
74,2.040642023086548,0.03104090690612793,32.21555359268789,36.26309718353845,29.0,-46.0,0.0,1112,1088.2989827892309,305.82491378020023,
75,2.070338726043701,0.02969670295715332,33.67377184742728,36.22595619573842,14.0,-16.0,16.0,1121,1104.6494913946153,428.20410507365625,
76,2.0977258682250977,0.027387142181396484,36.51348480891443,36.22971006421549,16.0,8.0,14.0,1107,1105.8247456973077,235.55836760081212,
77,2.1266069412231445,0.028881072998046875,34.62475234447233,36.2079134170946,29.0,-1.0,7.0,1130,1117.9123728486538,327.0447320742464,
78,2.154726982116699,0.028120040893554688,35.56182595129892,36.19948171966389,9.0,-20.0,12.0,1121,1119.456186424327,190.97278087679254,
79,2.1846468448638916,0.029919862747192383,33.42261321348601,36.16145107651112,16.0,-37.0,-1.0,1088,1103.7280932121635,-167.35059756950074,
80,2.2203757762908936,0.03572893142700195,27.988522467936313,36.029937299009305,23.0,-20.0,11.0,1093,1098.3640466060817,-158.74116826143836,
81,2.2482779026031494,0.02790212631225586,35.83956250534051,36.02757466335227,26.0,4.0,6.0,1074,1086.1820233030408,-297.66977693614507,
82,2.2783288955688477,0.030050992965698242,33.27677062589751,35.991291757517054,16.0,-8.0,3.0,1107,1096.5910116515204,24.353870391925568,
83,2.3031718730926514,0.02484297752380371,40.25282392345416,36.0372584302835,16.0,-16.0,12.0,1093,1094.7955058257603,-23.960154732965428,
84,2.327523946762085,0.024352073669433594,41.06426473467789,36.089854249128514,13.0,-11.0,11.0,1083,1088.8977529128802,-133.0735208435968,
85,2.353527069091797,0.026003122329711914,38.456920185210656,36.116006956657046,-1.0,-19.0,8.0,1074,1081.44887645644,-209.7671840992038,
86,2.3840229511260986,0.030495882034301758,32.791312573782925,36.07347821856233,-5.0,-36.0,6.0,1060,1070.7244382282202,-280.717795109495,
87,2.4113149642944336,0.02729201316833496,36.64075617405282,36.07989884699976,5.0,-13.0,14.0,1079,1074.86221911411,-64.55318728397302,
88,2.4367029666900635,0.025388002395629883,39.38868385218576,36.11437307007357,26.0,-4.0,-1.0,1088,1081.4311095570552,97.09338081641751,
89,2.4610729217529297,0.02436995506286621,41.03413393337573,36.16308936372704,22.0,-17.0,-4.0,1069,1075.2155547785276,-78.97826321795827,
90,2.484038829803467,0.02296590805053711,43.542802566285324,36.231317691245856,14.0,-46.0,5.0,1083,1079.107777389264,45.25000873268259,
91,2.513688802719116,0.029649972915649414,33.726843624609,36.201776409857565,24.0,-28.0,21.0,1083,1081.053888694632,55.44310020245724,
92,2.5400729179382324,0.02638411521911621,37.90159312507342,36.21943265891597,12.0,12.0,20.0,1069,1075.026944347316,-86.49384611848703,
93,2.566330909729004,0.026257991790771484,38.083643561479654,36.23850675196851,10.0,0.0,23.0,1097,1086.013472173658,165.95658179910214,
94,2.5939347743988037,0.027603864669799805,36.22681142521528,36.23838229385948,2.0,-16.0,24.0,1074,1080.006736086829,-25.824156849744725,
95,2.622934103012085,0.02899932861328125,34.48355695869508,36.21898083177361,7.0,-16.0,26.0,1065,1072.5033680434144,-142.28348807844296,
96,2.6494898796081543,0.026555776596069336,37.65659032347845,36.23338995889952,10.0,16.0,22.0,1093,1082.7516840217072,121.81657411084352,
97,2.6764931678771973,0.02700328826904297,37.03252692918947,36.24145249619055,16.0,-22.0,8.0,1121,1101.8758420108536,415.0162349209907,
98,2.7061607837677,0.02966761589050293,33.7067866757745,36.21366497801279,22.0,-16.0,28.0,1083,1092.4379210054267,48.44712246412723,
99,2.7340779304504395,0.027917146682739258,35.82027960680826,36.20964819524722,30.0,-11.0,9.0,1055,1073.7189605027133,-311.03563834593245,
100,2.7594640254974365,0.02538609504699707,39.39164326568179,36.238921426769984,21.0,-7.0,10.0,1055,1064.3594802513567,-339.8604727797841,
101,2.788090944290161,0.02862691879272461,34.93215624219206,36.22550412383132,-5.0,-21.0,0.0,1079,1071.6797401256783,-42.074005558265284,
102,2.8172690868377686,0.029178142547607422,34.272229576244875,36.20527427661852,6.0,-5.0,25.0,1055,1063.339870062839,-163.94997349397246,
103,2.8451199531555176,0.027850866317749023,35.90552583144288,36.20234004044816,2.0,22.0,22.0,1069,1066.1699350314195,-31.16750132997236,
104,2.872960090637207,0.027840137481689453,35.9193628500471,36.19959787778791,-5.0,13.0,18.0,1074,1070.0849675157096,54.72898552148294,
105,2.899894952774048,0.02693486213684082,37.126605472103954,36.20820812821399,-4.0,-26.0,21.0,1126,1098.0424837578548,546.3483305117726,
106,2.926870107650757,0.026975154876708984,37.071149528910574,36.216161326366674,1.0,-27.0,21.0,1069,1083.5212418789274,4.01460073628806,
107,2.953061819076538,0.02619171142578125,38.18001747742499,36.23357943568561,5.0,3.0,20.0,1097,1090.2606209394637,130.6621055272779,
108,2.9779348373413086,0.024873018264770508,40.204208003834175,36.26674386751259,-8.0,-15.0,17.0,1051,1070.6303104697317,-329.27948988883486,
109,3.0052270889282227,0.027292251586914062,36.64043608917464,36.27013758846208,2.0,-15.0,17.0,1112,1091.3151552348659,214.31112137128048,
110,3.0336458683013916,0.028418779373168945,35.187999697978974,36.260000268782704,1.0,0.0,15.0,1116,1103.657577617433,324.30813822068967,
111,3.0604088306427,0.026762962341308594,37.365071446388484,36.269664003253276,-25.0,30.0,16.0,1126,1114.8287888087166,370.8606212628489,
112,3.0886149406433105,0.02820611000061035,35.45331135624023,36.26220883872048,-2.0,-8.0,-14.0,1112,1113.4143944043583,160.35782803230524,
113,3.1173219680786133,0.028707027435302734,34.83467601282328,36.249062867782136,20.0,-49.0,-9.0,1088,1100.707197202179,-141.14663476833186,
114,3.1452980041503906,0.027976036071777344,35.744878131924324,36.244578367318724,21.0,-40.0,3.0,1116,1108.3535986010895,66.08652569174953,
115,3.1739449501037598,0.02864694595336914,34.90773507332257,36.23251247512674,8.0,-19.0,15.0,1116,1112.1767993005446,99.77290142023534,
116,3.201749086380005,0.027804136276245117,35.96587177046622,36.23019695498785,14.0,-25.0,12.0,1093,1102.5883996502723,-122.54112544272105,
117,3.228599786758423,0.02685070037841797,37.242976380749425,36.2386197508457,12.0,-24.0,19.0,1097,1099.7941998251363,-113.30272176667852,
118,3.2576379776000977,0.029038190841674805,34.43740711851882,36.22256395934168,-3.0,-9.0,11.0,1130,1114.8970999125681,203.400998607263,
119,3.2848761081695557,0.027238130569458008,36.713239091426324,36.22663262825788,-4.0,-14.0,14.0,1130,1122.448549956284,240.3195947745839,
120,3.311924934387207,0.027048826217651367,36.97018095918062,36.2327052627487,-8.0,6.0,20.0,1135,1128.7242749781421,236.1671422413674,
121,3.341378927230835,0.02945399284362793,33.951254259788406,36.212594451320925,6.0,11.0,25.0,1126,1127.362137489071,94.96043300656281,
122,3.3689749240875244,0.027595996856689453,36.237139944360926,36.21279550872386,14.0,-9.0,30.0,1121,1124.1810687445354,-10.156200130904047,
123,3.3983030319213867,0.029328107833862305,34.09698319662469,36.19453557985272,2.0,-7.0,18.0,1121,1122.5905343722677,-32.19431194788511,
124,3.4277729988098145,0.029469966888427734,33.932851156092745,36.1750909535302,7.0,14.0,4.0,1116,1119.295267186134,-72.00606144725899,
125,3.455767869949341,0.027994871139526367,35.72082882668052,36.171411016050804,16.0,-1.0,0.0,1135,1127.147633593067,104.24348742958581,
126,3.4853761196136475,0.02960824966430664,33.774370702011495,36.151048172662364,19.0,-19.0,0.0,1112,1119.5738167965335,-75.77870434282877,
127,3.5119240283966064,0.026547908782958984,37.66775033677593,36.16251347498048,13.0,2.0,13.0,1130,1124.7869083982669,60.293364297003535,
128,3.537993907928467,0.02606987953186035,38.358443458777266,36.17869429146229,0.0,6.0,4.0,1112,1118.3934541991334,-92.47479355336911,
129,3.5662238597869873,0.028229951858520508,35.42336894556818,36.17271519452658,5.0,6.0,11.0,1121,1119.6967270995667,-23.154238382280056,
130,3.593498945236206,0.02727508544921875,36.6634965034965,36.1764402831778,6.0,-6.0,12.0,1116,1117.8483635497832,-45.46085446347837,
131,3.6223480701446533,0.028849124908447266,34.66309647774417,36.164387701916425,12.0,2.0,10.0,1130,1123.9241817748916,82.57290942734484,
132,3.650974988937378,0.02862691879272461,34.93215624219206,36.154725901975794,8.0,7.0,5.0,1130,1126.9620908874458,94.3468125983334,
133,3.678518056869507,0.027543067932128906,36.30677608116063,36.15586438447055,14.0,-4.0,12.0,1112,1119.481045443723,-88.63291458995052,
134,3.7062690258026123,0.02775096893310547,36.03477782741675,36.154957739739785,-2.0,-18.0,7.0,1126,1122.7405227218615,14.410812480642555,
135,3.734081983566284,0.027812957763671875,35.95446440817446,36.153464384053635,-13.0,-17.0,-11.0,1148,1135.3702613609307,234.25315043180225,
136,3.7616021633148193,0.027520179748535156,36.33697196520775,36.154806940070806,-2.0,-6.0,31.0,1116,1125.6851306804654,-58.83758579182056,
137,3.7882440090179443,0.026641845703125,37.534936998854526,36.16451307620904,8.0,1.0,20.0,1139,1132.3425653402328,95.52440236827024,
138,3.8163809776306152,0.0281369686126709,35.54043130110579,36.15991191887681,5.0,-2.0,13.0,1130,1131.1712826701164,26.94825554841133,
139,3.8441848754882812,0.027803897857666016,35.96618017801712,36.15851071219473,-1.0,-22.0,0.0,1107,1119.0856413350582,-203.8630491375916,
140,3.875335931777954,0.03115105628967285,32.10164017235969,36.12590042891322,2.0,-5.0,7.0,1107,1113.0428206675292,-198.92375191635273,
141,3.9030299186706543,0.027693986892700195,36.10892154583882,36.1257799550826,0.0,-2.0,1.0,1074,1093.5214103337646,-451.910413061193,
142,3.931933879852295,0.028903961181640625,34.5973340372179,36.11454422660187,0.0,10.0,-6.0,1126,1109.7607051668824,54.962947404525266,
143,3.960730791091919,0.028796911239624023,34.725946532210656,36.10444828050959,0.0,-3.0,0.0,1130,1119.8803525834412,203.1886412583848,
144,3.9881279468536377,0.02739715576171875,36.50013923698134,36.10716655006172,0.0,-4.0,0.0,1126,1122.9401762917205,157.43631632559757,
