Index,Time,Difference,Hz,AveHz,0x6103 Linear-Acceleration-X,0x6103 Linear-Acceleration-Y,0x6103 Linear-Acceleration-Z,0x6103 Range,0x6103 Smoothed Range,0x6103 Velocity,
0,0.0,0.0,0,0,-68.0,-10.0,4.0,457,478.0,,
1,0.02558302879333496,0.02558302879333496,39.08841318509268,39.08841318509268,18.0,43.0,44.0,485,481.5,68.4047230739122,
2,0.05121302604675293,0.02562999725341797,39.016781395348836,39.05256444276849,19.0,47.0,26.0,485,483.25,68.34204525788633,
3,0.07950019836425781,0.028287172317504883,35.35171309368283,37.73575490031429,-71.0,45.0,-16.0,466,474.625,-118.28324008756407,
4,0.10775899887084961,0.028258800506591797,35.387206182609724,37.1198697270197,-30.0,41.0,0.0,490,482.3125,76.87795372062408,
5,0.13551807403564453,0.027759075164794922,36.02425491711758,36.895447604168865,-37.0,10.0,-31.0,541,511.65625,566.9823419723966,
6,0.16533398628234863,0.0298159122467041,33.539138153002234,36.29017926026121,-51.0,-44.0,-45.0,447,479.328125,-258.63755431506434,
7,0.1935110092163086,0.02817702293395996,35.48990971628745,36.17365248803663,-69.0,-42.0,-50.0,485,482.1640625,-78.9951942395152,
8,0.2186870574951172,0.025176048278808594,39.72029243531952,36.581954559330164,-105.0,13.0,-85.0,508,495.08203125,217.05515109040186,
9,0.2435321807861328,0.024845123291015625,40.2493474589283,36.95610153429249,-70.0,50.0,-47.0,471,483.041015625,-133.7939352793039,
10,0.2706761360168457,0.02714395523071289,36.8406148440931,36.944520293350294,-28.0,21.0,-39.0,494,488.5205078125,34.0369629708004,
11,0.294605016708374,0.02392888069152832,41.790504657998305,37.33812859978813,-10.0,-5.0,-38.0,485,486.76025390625,-19.762468048799967,
12,0.3202331066131592,0.025628089904785156,39.019685185874295,37.472702703708805,-8.0,4.0,-32.0,485,485.880126953125,-27.052372341670107,
13,0.3447089195251465,0.024475812911987305,40.85666137406365,37.712978294580076,-34.0,6.0,-45.0,443,464.4400634765625,-451.51089282100696,
14,0.3699989318847656,0.02529001235961914,39.541301355657374,37.83794706834514,-82.0,61.0,-85.0,471,467.72003173828125,-160.9083396736971,
15,0.3949909210205078,0.024991989135742188,40.01282149126154,37.975556403285545,-92.0,-10.0,-121.0,438,452.8600158691406,-377.74975100146736,
16,0.42424702644348145,0.029256105422973633,34.1808995265221,37.71387659244215,-73.0,-27.0,-99.0,499,475.9300079345703,205.40166493232337,
17,0.44959402084350586,0.025346994400024414,39.452409394899966,37.81189075447544,38.0,15.0,-43.0,447,461.46500396728516,-182.6387967419314,
18,0.4751579761505127,0.025563955307006836,39.11757738544902,37.88213794878665,50.0,51.0,-34.0,447,454.2325019836426,-232.77837638874175,
19,0.5001680850982666,0.025010108947753906,39.98383222116301,37.987229825483816,-73.0,52.0,-76.0,471,462.6162509918213,51.21801866930882,
20,0.525432825088501,0.025264739990234375,39.580854597614376,38.06385715744217,-92.0,11.0,-83.0,466,464.30812549591064,59.09192870654026,
21,0.5506808757781982,0.025248050689697266,39.60701807399573,38.1346092150444,-83.0,-21.0,-81.0,485,474.6540627479553,234.4318262203498,
22,0.5764491558074951,0.025768280029296875,38.80740192450037,38.164684219516644,-75.0,-34.0,-63.0,433,453.82703137397766,-286.90557560189023,
23,0.6010031700134277,0.024554014205932617,40.72653830095061,38.26934889459257,-30.0,-22.0,-38.0,424,438.91351568698883,-447.1407217149342,
24,0.6258561611175537,0.024852991104125977,40.23660555827362,38.34746942036113,-53.0,-28.0,-56.0,438,438.4567578434944,-232.75955344963333,
25,0.6508519649505615,0.024995803833007812,40.00671499427699,38.41119232373984,-58.0,15.0,-82.0,485,461.7283789217472,349.1307792414176,
26,0.6777329444885254,0.026880979537963867,37.20102530444269,38.36319336611532,-46.0,67.0,-46.0,504,482.8641894608736,567.7023009686826,
27,0.7039580345153809,0.02622509002685547,38.13142296083494,38.35455904496829,-17.0,64.0,-34.0,508,495.4320947304368,523.4672062670516,
28,0.7342619895935059,0.030303955078125,32.99899295065458,38.133527810013774,-24.0,16.0,-16.0,504,499.7160473652184,332.4166645315738,
29,0.7615900039672852,0.027328014373779297,36.592486608155504,38.07823087085282,-55.0,-43.0,-16.0,452,475.8580236826092,-270.3038737856801,
30,0.7882940769195557,0.026704072952270508,37.4474710950404,38.05686339447335,-73.0,-15.0,-24.0,480,477.9290118413046,-96.37530228738157,
31,0.8179872035980225,0.029693126678466797,33.6778275601805,37.897903370178035,-41.0,70.0,9.0,490,483.9645059206523,53.44351327869032,
32,0.8440520763397217,0.02606487274169922,38.36581171563426,37.912352681803426,-39.0,68.0,13.0,527,505.48225296032615,439.4946723737319,
33,0.8709189891815186,0.026866912841796875,37.22050262672157,37.891009852722455,13.0,10.0,39.0,490,497.7411264801631,75.68302694251912,
34,0.8998780250549316,0.028959035873413086,34.531536352634134,37.7828984077309,20.0,13.0,25.0,560,528.8705632400815,575.3151520273344,
35,0.9264020919799805,0.026524066925048828,37.70160898876404,37.780570988559845,-76.0,-2.0,2.0,504,516.4352816200408,53.242513361696524,
36,0.9515359401702881,0.025133848190307617,39.78698337111906,37.8335683185623,-108.0,2.0,-14.0,527,521.7176408100204,131.70582530684672,
37,0.9779870510101318,0.02645111083984375,37.80559561580617,37.83281175531299,-104.0,-11.0,2.0,513,517.3588204050102,-16.54098814344654,
38,1.006072998046875,0.028085947036743164,35.60499486422017,37.770619103952434,1.0,-6.0,68.0,532,524.6794102025051,122.05428699971102,
39,1.033635139465332,0.02756214141845703,36.28165115393931,37.73091539841952,23.0,2.0,99.0,,524.6794102025051,122.05428699971102,
40,1.0557551383972168,0.022119998931884766,45.20795878333225,37.88757311730973,-4.0,24.0,69.0,565,544.8397051012525,516.7300339210547,
41,1.0796449184417725,0.023889780044555664,41.85890360375645,37.97544850132245,-33.0,49.0,73.0,513,528.9198525506263,-74.82876969081337,
42,1.1083929538726807,0.028748035430908203,34.784985652440746,37.89269848139478,-56.0,48.0,58.0,560,544.4599262753131,232.86623593014525,
43,1.1348071098327637,0.026414155960083008,37.858487756004656,37.89190218092386,-35.0,43.0,58.0,513,528.7299631376566,-181.3231904596153,
44,1.1635432243347168,0.028736114501953125,34.79941590335856,37.81552681479284,-15.0,44.0,60.0,574,551.3649815688283,303.1811149534579,
45,1.1893231868743896,0.02577996253967285,38.789815868083494,37.83664566253233,-31.0,5.0,72.0,616,583.6824907844141,778.3856733705612,
46,1.219123125076294,0.029799938201904297,33.557116569325544,37.7320379326914,-38.0,-40.0,57.0,,583.6824907844141,778.3856733705612,
47,1.2453269958496094,0.02620387077331543,38.16230085435868,37.74109142148229,-2.0,39.0,102.0,588,585.841245392207,430.3843580919446,
48,1.2725460529327393,0.027219057083129883,36.738965532343535,37.719656502315246,-23.0,71.0,91.0,574,579.9206226961035,106.43340246489218,
49,1.2975759506225586,0.025029897689819336,39.95222083575436,37.76272207918966,-35.0,68.0,76.0,565,572.4603113480517,-95.81130200797745,
50,1.3228931427001953,0.02531719207763672,39.498851094285605,37.79594767415875,-10.0,3.0,86.0,565,568.7301556740258,-121.57408276741597,
51,1.3486049175262451,0.025711774826049805,38.89268659069202,37.81685750749718,-41.0,-65.0,61.0,555,561.8650778370129,-194.28770175153238,
52,1.3774080276489258,0.028803110122680664,34.718472961451546,37.752066893902104,-55.0,-64.0,49.0,522,541.9325389185065,-443.1575076233897,
53,1.4050519466400146,0.027643918991088867,36.17432102598601,37.7210252807678,-87.0,-4.0,-1.0,597,569.4662694592532,276.4282500002897,
54,1.4351089000701904,0.03005695343017578,33.270171653393405,37.62780650120621,1.0,40.0,66.0,532,550.7331347296266,-173.41317903026658,
55,1.4617860317230225,0.02667713165283203,37.48528938619383,37.62520560903905,41.0,67.0,73.0,569,559.8665673648134,84.47809319450784,
56,1.4886770248413086,0.026890993118286133,37.187172507957335,37.61729311700068,11.0,27.0,70.0,546,552.9332836824067,-86.67556157487755,
57,1.5166118144989014,0.027934789657592773,35.79765633668183,37.58377684723047,-40.0,27.0,39.0,541,546.9666418412033,-150.13367784517064,
58,1.5439188480377197,0.02730703353881836,36.62060174271395,37.56674133081313,-82.0,19.0,-1.0,504,525.4833209206017,-468.4329086947186,
59,1.5698590278625488,0.0259401798248291,38.55023391329124,37.58299245527276,-37.0,-3.0,17.0,522,523.7416604603009,-267.7871634184237,
60,1.5995368957519531,0.029677867889404297,33.69514291682064,37.51085714830829,26.0,17.0,37.0,494,508.87083023015043,-384.43095665755965,
61,1.628737211227417,0.029200315475463867,34.24620534803021,37.45232783994072,-23.0,4.0,-14.0,522,515.4354151150752,-79.80941733192512,
62,1.6562960147857666,0.02755880355834961,36.28604550566658,37.43292228353238,-24.0,-7.0,-35.0,466,490.7177075575376,-488.3586392802468,
63,1.6842389106750488,0.027942895889282227,35.787271439663485,37.40561959511396,-3.0,-10.0,3.0,527,508.8588537787688,80.43174238278928,
64,1.711925983428955,0.02768707275390625,36.1179388261229,37.38479386346437,-38.0,4.0,-36.0,457,482.9294268893844,-428.0428559022111,
65,1.7390689849853516,0.027143001556396484,36.8419092458233,37.37632064121223,-41.0,32.0,-14.0,494,488.46471344469217,-112.05616549096803,
66,1.766951084136963,0.027882099151611328,35.86530535460811,37.35247715260696,-54.0,-15.0,-41.0,504,496.2323567223461,83.26636627387934,
67,1.794145107269287,0.02719402313232422,36.77278625284938,37.34369072408803,-25.0,-63.0,-31.0,443,469.61617836117307,-447.7423357346253,
68,1.8213980197906494,0.027252912521362305,36.69332586805707,37.33395955257264,-87.0,-75.0,-20.0,480,474.80808918058653,-128.61693007999793,
69,1.85017991065979,0.028781890869140625,34.744068919814445,37.29367052493506,262.0,-37.0,229.0,475,474.90404459029327,-62.64152435595909,
70,1.8777570724487305,0.02757716178894043,36.261889735188085,37.278517560695406,99.0,161.0,53.0,499,486.95202229514666,187.12045735471958,
71,1.904958963394165,0.02720189094543457,36.76215017573383,37.27114408464505,-172.0,102.0,-225.0,424,455.47601114757333,-485.0026956927218,
72,1.934255838394165,0.029296875,34.13333333333333,37.22361777115017,-293.0,52.0,-377.0,424,439.73800557378667,-511.09664297231996,
73,1.9616498947143555,0.02739405632019043,36.504268966657676,37.213572206079036,-165.0,53.0,-296.0,475,457.36900278689336,66.25501072265934,
74,1.9888031482696533,0.02715325355529785,36.82799919219591,37.20830795364703,-66.0,27.0,-223.0,494,475.6845013934467,370.38908930473514,
75,2.018994092941284,0.03019094467163086,33.12251441206665,37.147211208894376,103.0,-36.0,-122.0,490,482.84225069672334,303.73587188023816,
76,2.0470080375671387,0.028013944625854492,35.6965080553877,37.12735788293519,110.0,-29.0,-130.0,480,481.42112534836167,126.50332971736508,
77,2.07207989692688,0.02507185935974121,39.88535455833547,37.1607292335587,-9.0,46.0,-253.0,452,466.71056267418084,-230.1163391474766,
78,2.1015079021453857,0.02942800521850586,33.98123632828324,37.116205901663,-65.0,-15.0,-297.0,429,447.85528133709045,-435.4210551497067,
79,2.1298680305480957,0.02836012840270996,35.260771241939956,37.09149997414173,-21.0,-59.0,-267.0,499,473.4276406685452,233.1400286767044,
80,2.158622980117798,0.02875494956970215,34.776621589128325,37.060663551184064,29.0,-86.0,-172.0,461,467.2138203342726,8.522175144437455,
81,2.1874399185180664,0.028816938400268555,34.70181273631347,37.029588476594775,-46.0,106.0,-117.0,461,464.10691016713633,-49.64661983203701,
82,2.2183499336242676,0.030910015106201172,32.35197383644694,36.96441159129078,-114.0,-61.0,-209.0,504,484.05345508356817,297.8317397159397,
83,2.2473559379577637,0.029006004333496094,34.4756205819497,36.932289450964525,-184.0,-70.0,-199.0,565,524.5267275417841,846.5864623476335,
84,2.2730209827423096,0.0256650447845459,38.96350107295141,36.95522418744122,14.0,-71.0,-67.0,560,542.263363770892,768.8339535455148,
85,2.2977709770202637,0.0247499942779541,40.404049745205135,36.9923725428143,133.0,89.0,57.0,597,569.631681885446,937.3124200442761,
86,2.323194980621338,0.02542400360107422,39.33290821111069,37.017986315121654,-194.0,107.0,-68.0,668,618.8158409427231,1435.9342168424114,
87,2.375854969024658,0.05265998840332031,18.989749719294434,36.61839680210592,-39.0,-108.0,-104.0,668,643.4079204713615,951.46582608412,
88,2.4157042503356934,0.039849281311035156,25.09455546248654,36.428300354967405,12.0,147.0,13.0,,643.4079204713615,951.46582608412,
89,2.438555955886841,0.02285170555114746,43.760409819817,36.49700954581252,10.0,35.0,38.0,719,681.2039602356808,1302.718007868416,
90,2.466977119445801,0.02842116355895996,35.185047857927806,36.48189490311051,-92.0,-62.0,-14.0,780,730.6019801178404,1520.3948507545351,
91,2.495965003967285,0.028987884521484375,34.49717068035268,36.4588445171937,-106.0,38.0,53.0,738,734.3009900589202,824.0001140201431,
92,2.525084972381592,0.02911996841430664,34.34069658910413,36.434417457733346,-100.0,6.0,67.0,738,736.1504950294601,443.75670152674684,
93,2.552809953689575,0.0277249813079834,36.06855452458142,36.430443976288615,-56.0,-74.0,53.0,742,739.0752475147301,274.62414800630654,
94,2.5809521675109863,0.028142213821411133,35.5338071960487,36.42066721858373,-102.0,-25.0,78.0,808,773.537623757365,749.6017904648929,
95,2.6134438514709473,0.03249168395996094,30.777105958321105,36.350503549762635,-145.0,73.0,32.0,892,832.7688118786825,1286.2831716559656,
96,2.640594959259033,0.027151107788085938,36.83090972953987,36.355443178963796,-57.0,-1.0,59.0,850,841.3844059393413,801.8016693852237,
97,2.6717729568481445,0.031177997589111328,32.07390074176034,36.30548013122703,22.0,-64.0,111.0,817,829.1922029696707,205.375080756307,
98,2.69792103767395,0.026148080825805664,38.2437245265471,36.32426547386726,50.0,157.0,244.0,845,837.0961014848353,253.82479912802438,
99,2.7251248359680176,0.027203798294067383,36.759572659310614,36.32861096612231,-243.0,64.0,104.0,864,850.5480507424177,374.1563526357407,
100,2.7512199878692627,0.026095151901245117,38.32129446053485,36.34751144616647,-227.0,-53.0,36.0,864,857.2740253712088,315.9522034598667,
101,2.778120994567871,0.0269010066986084,37.17333002454999,36.35550798452904,-27.0,-28.0,59.0,883,870.1370126856044,397.05613799974685,
102,2.8072688579559326,0.029147863388061523,34.30783199051164,36.33424697136763,73.0,-133.0,68.0,883,876.5685063428023,308.85337091946593,
103,2.839590072631836,0.03232121467590332,30.93943126913289,36.27284127829614,-21.0,-88.0,13.0,859,867.7842531714011,18.536786836118978,
104,2.865093946456909,0.025503873825073242,39.20972973983603,36.29898423701275,-16.0,71.0,33.0,896,881.8921265857006,285.85134530730875,
105,2.893018960952759,0.02792501449584961,35.81018731963868,36.29426609959733,33.0,38.0,45.0,933,907.4460632928503,600.4713027722664,
106,2.9212071895599365,0.028188228607177734,35.47580140404297,36.28636831335757,16.0,0.0,45.0,915,911.2230316464252,367.2311409965211,
107,2.9484620094299316,0.027254819869995117,36.69075799326423,36.290106386918595,-2.0,13.0,39.0,,911.2230316464252,367.2311409965211,
108,2.9738011360168457,0.025339126586914062,39.4646593902898,36.31715607744263,12.0,-37.0,21.0,952,931.6115158232126,585.9278622588748,
109,3.007949113845825,0.03414797782897949,29.28431091903063,36.23731515212956,-32.0,-7.0,25.0,985,958.3057579116063,683.8251736616348,
110,3.0390448570251465,0.03109574317932129,32.15874257235959,36.195582880496396,-46.0,52.0,53.0,975,966.6528789558031,476.12904527114256,
111,3.064608097076416,0.02556324005126953,39.11867188957284,36.21996564777471,-40.0,36.0,36.0,999,982.8264394779015,554.4086263106302,
112,3.090492010116577,0.025883913040161133,38.63403490996178,36.240184292136455,-46.0,66.0,31.0,1008,995.4132197389508,520.343367160013,
113,3.118666172027588,0.028174161911010742,35.49351363701754,36.23343883790342,-30.0,35.0,45.0,971,983.2066098694754,43.543946648017254,
114,3.1472420692443848,0.028575897216796875,34.99452676545187,36.222189933858516,-33.0,-4.0,61.0,1008,995.6033049347377,238.68021195624186,
115,3.177420139312744,0.030178070068359375,33.13664517760081,36.192884465342935,-33.0,22.0,73.0,1008,1001.8016524673689,222.0363274162488,
116,3.2044010162353516,0.026980876922607422,37.0632875598678,36.20021321060529,-33.0,-4.0,89.0,1018,1009.9008262336845,261.10916685727125,
117,3.23364520072937,0.029244184494018555,34.19483282922574,36.182077110256216,-32.0,8.0,83.0,1008,1008.9504131168422,114.30497460407369,
118,3.2605550289154053,0.026909828186035156,37.16114399121097,36.190157489613554,4.0,-1.0,45.0,990,999.4752065584212,-118.90227032993901,
119,3.2884249687194824,0.02786993980407715,35.88095299200137,36.18753693089089,16.0,34.0,49.0,1008,1003.7376032792106,17.018293020983315,
120,3.3176090717315674,0.02918410301208496,34.26522992966088,36.17062691999697,-10.0,24.0,28.0,980,991.8688016396053,-194.8344620748141,
121,3.3449318408966064,0.027322769165039062,36.59951134380454,36.17413022310375,-18.0,2.0,-4.0,1060,1025.9344008198027,525.9749107771597,
122,3.371961832046509,0.027029991149902344,36.995942560773386,36.18071795491109,0.0,-7.0,-16.0,1051,1038.4672004099014,494.81882226906674,
123,3.4009170532226562,0.02895522117614746,34.53608569993495,36.16671564613642,-32.0,-28.0,-1.0,1083,1060.7336002049506,631.9065569099502,
124,3.4284701347351074,0.027553081512451172,36.29358115708772,36.16773520752298,-16.0,-62.0,11.0,1041,1050.8668001024753,136.90252331500102,
125,3.4527409076690674,0.02427077293395996,41.20181927130915,36.203121908845176,17.0,-38.0,-17.0,1069,1059.9334000512376,255.23146790458426,
126,3.4791581630706787,0.026417255401611328,37.85404595584917,36.21565737867845,1.0,-8.0,23.0,1027,1043.4667000256188,-184.04987580318664,
127,3.5057008266448975,0.02654266357421875,37.67519402127048,36.22670794802086,-28.0,-5.0,46.0,1032,1037.7333500128093,-200.02747496381951,
128,3.5337910652160645,0.028090238571166992,35.59955525000212,36.22172268755051,-34.0,0.0,63.0,1055,1046.3666750064046,53.657527568451215,
129,3.561976909637451,0.02818584442138672,35.47880223312468,36.215843974443395,-26.0,-23.0,10.0,1051,1048.6833375032024,67.92496906661842,
130,3.5883431434631348,0.026366233825683594,37.92729771765472,36.22841930176614,-7.0,-33.0,25.0,1074,1061.3416687516012,274.01063346666547,
131,3.617331027984619,0.028987884521484375,34.49717068035268,36.21454574838458,-19.0,-27.0,21.0,1032,1046.6708343758005,-116.0458220092587,
132,3.645735025405884,0.02840399742126465,35.206312166869516,36.20669057957779,-26.0,5.0,-13.0,1051,1048.8354171879002,-19.91942190771728,
133,3.671959161758423,0.026224136352539062,38.132809658884284,36.22044639960242,-8.0,-18.0,19.0,1055,1051.91770859395,48.80850479619656,
134,3.7019999027252197,0.030040740966796875,33.28812698412698,36.196651410324506,-18.0,-22.0,-2.0,1022,1036.958854296975,-224.57186828928047,
135,3.7266361713409424,0.024636268615722656,40.59056245887044,36.225698939487145,-32.0,-17.0,7.0,1032,1034.4794271484875,-162.60660541109073,
136,3.752035140991211,0.025398969650268555,39.371675850222005,36.24699526776596,-30.0,20.0,12.0,1055,1044.7397135742438,120.6790329371086,
137,3.7801671028137207,0.028131961822509766,35.546756614743124,36.24178409944516,-32.0,18.0,3.0,1051,1047.869856787122,115.9727359472907,
138,3.8066298961639404,0.026462793350219727,37.78890560665988,36.25253932331769,-26.0,20.0,-20.0,1065,1056.434928393561,219.8187091986485,
139,3.834421157836914,0.027791261672973633,35.982533350491146,36.25058236388752,-25.0,30.0,-28.0,1069,1062.7174641967804,222.9401316318224,
140,3.8623719215393066,0.027950763702392578,35.777197741269596,36.24715662913283,-28.0,45.0,-15.0,1079,1070.8587320983902,257.10594160618376,
141,3.8894338607788086,0.027061939239501953,36.95226684051944,36.25206265154656,-51.0,87.0,14.0,1051,1060.929366049195,-54.90332110043386,
142,3.917886972427368,0.02845311164855957,35.145540928934736,36.2440266907502,-17.0,13.0,15.0,1051,1055.9646830245974,-114.69489577030923,
143,3.9467079639434814,0.02882099151611328,34.69693259653883,36.232728974736936,9.0,30.0,21.0,1079,1067.4823415122987,142.46626222370776,
144,3.973823070526123,0.0271151065826416,36.87981077825357,36.237144292620656,-12.0,-31.0,-13.0,1065,1066.2411707561494,48.34605979670876,
