Index,Time,Difference,Hz,AveHz,0x6103 Linear-Acceleration-X,0x6103 Linear-Acceleration-Y,0x6103 Linear-Acceleration-Z,0x6103 Range,0x6103 Smoothed Range,0x6103 Velocity,
0,9.5367431640625e-07,9.5367431640625e-07,1048576.0,0.0,-2.0,-16.0,3.0,1443,1419.5,12320768.0,
1,0.027276039123535156,0.02727508544921875,36.6634965034965,36.66221460788084,-8.0,-3.0,4.0,1363,1391.25,6159866.128111888,
2,0.05478191375732422,0.027505874633789062,36.355869911933986,36.5083996309385,-6.0,6.0,9.0,1372,1381.625,3079758.101431993,
3,0.08348488807678223,0.028702974319458008,34.839594979607774,35.934647205142774,-7.0,6.0,11.0,1391,1386.3125,1539960.7060167298,
4,0.11255979537963867,0.029074907302856445,34.3939187693216,35.536667302111795,-9.0,-1.0,9.0,1419,1402.65625,770261.415813308,
5,0.14028191566467285,0.02772212028503418,36.07227692969254,35.642512980446476,-12.0,-12.0,0.0,1368,1385.328125,384818.1754448178,
6,0.16902685165405273,0.028744935989379883,34.78873636627545,35.49731856971578,-9.0,-14.0,10.0,1424,1404.6640625,192745.42413845003,
7,0.19538211822509766,0.026355266571044922,37.94308045810642,35.82722955196634,1.0,-9.0,15.0,1424,1414.33203125,96556.12832729887,
8,0.22410988807678223,0.02872776985168457,34.809524204725584,35.69677388468965,2.0,0.0,22.0,1396,1405.166015625,48118.53184226977,
9,0.254105806350708,0.02999591827392578,33.33786920166598,35.41831699657627,-7.0,9.0,15.0,1424,1414.5830078125,24216.237148044875,
10,0.28182101249694824,0.027715206146240234,36.08127591487019,35.48351455911502,-14.0,12.0,7.0,1443,1428.79150390625,12364.448907969412,
11,0.3120138645172119,0.030192852020263672,33.1204219902399,35.25484361735213,-15.0,16.0,13.0,1368,1398.395751953125,5678.864388285627,
12,0.34458494186401367,0.03257107734680176,30.702085453068158,34.82450491041961,-5.0,6.0,14.0,1391,1394.6978759765625,2782.6659420291785,
13,0.37341809272766113,0.02883315086364746,34.682300409310784,34.813524714457465,-3.0,-4.0,11.0,1429,1411.8489379882812,1688.7521135291631,
14,0.4317898750305176,0.058371782302856445,17.131565296594765,32.423178053933114,-1.0,6.0,11.0,1424,1417.9244689941406,896.4177348337646,
15,0.4653298854827881,0.03354001045227051,29.815136802746718,32.235195864192626,1.0,21.0,20.0,1415,1416.4622344970703,426.41050663295886,
16,0.5090770721435547,0.0437471866607666,22.858612777877692,31.429425671498635,-3.0,24.0,14.0,1405,1410.7311172485352,147.70255833203896,
17,0.5381410121917725,0.029063940048217773,34.406897287187356,31.590233070624738,-10.0,17.0,0.0,1415,1412.8655586242676,110.57103175619363,
18,0.5692670345306396,0.031126022338867188,32.12745879036706,31.61960715824866,-4.0,6.0,12.0,1405,1408.9327793121338,-7.889586762996387,
19,0.6022100448608398,0.032943010330200195,30.355452946668308,31.550453470749673,5.0,4.0,13.0,1457,1432.966389656067,360.83077058541284,
20,0.6296248435974121,0.027414798736572266,36.47664933122293,31.764947338685676,7.0,4.0,19.0,1424,1428.4831948280334,98.64942247984224,
21,0.6598339080810547,0.030209064483642578,33.10264707275109,31.826191019907903,5.0,9.0,14.0,1429,1428.7415974140167,53.60161604316643,
22,0.686305046081543,0.02647113800048828,37.7769931909068,32.05571651499424,1.0,19.0,0.0,1447,1437.8707987070084,199.23769556346454,
23,0.7122371196746826,0.02593207359313965,38.562284516443405,32.29261627153798,2.0,24.0,5.0,1433,1435.4353993535042,52.66156639123699,
24,0.7381389141082764,0.02590179443359375,38.607363770250366,32.51420503821247,3.0,25.0,0.0,1447,1441.217699676752,137.95046919985265,
25,0.7664577960968018,0.02831888198852539,35.31212850864638,32.61758198209071,2.0,21.0,5.0,1438,1439.608849838376,40.569278478001394,
26,0.8355369567871094,0.06907916069030762,14.476145772574627,31.117713930904756,10.0,-1.0,0.0,1400,1419.804424919188,-123.06123179708696,
27,0.8729619979858398,0.03742504119873047,26.7200774660449,30.929181410297726,19.0,5.0,13.0,,1419.804424919188,-123.06123179708696,
28,0.9079999923706055,0.035037994384765625,28.54044637996734,30.837004664391714,11.0,17.0,-1.0,,1419.804424919188,-123.06123179708696,
29,0.9332640171051025,0.02526402473449707,39.58197518048412,31.073736336642742,6.0,20.0,3.0,1419,1419.402212459594,-69.49079769500929,
30,0.9680221080780029,0.03475809097290039,28.77027972507648,30.99102773547669,1.0,15.0,-2.0,1475,1447.201106229797,365.14557606070844,
31,0.9991240501403809,0.03110194206237793,32.15233305992288,31.0271782524346,11.0,5.0,0.0,1419,1433.1005531148985,-44.11005200932064,
32,1.0292079448699951,0.030083894729614258,33.24037691887051,31.091870364488972,15.0,-2.0,6.0,1461,1447.0502765574493,209.79200656753505,
33,1.0575580596923828,0.028350114822387695,35.27322574405638,31.203960574607954,13.0,-8.0,4.0,1382,1414.5251382787246,-468.737269147284,
34,1.087928056716919,0.030369997024536133,32.92723404589381,31.252066522305775,12.0,-6.0,4.0,1433,1423.7625691393623,-82.28711060815226,
35,1.1182878017425537,0.030359745025634766,32.938353044652814,31.29784653419435,15.0,5.0,11.0,1429,1426.3812845696812,1.9845313795848583,
36,1.1562068462371826,0.037919044494628906,26.371972535902014,31.13629720941387,6.0,11.0,3.0,1410,1418.1906422848406,-107.0094310038143,
37,1.1818461418151855,0.02563929557800293,39.002631603418294,31.306951633460574,3.0,6.0,5.0,1438,1428.0953211424203,139.64955481426657,
38,1.2076199054718018,0.02577376365661621,38.79914525961352,31.46685461859283,2.0,-5.0,2.0,1499,1463.5476605712101,757.5850110525039,
39,1.2336971759796143,0.0260772705078125,38.34757167934465,31.612295755668036,11.0,-14.0,7.0,1541,1502.273830285605,1121.3197900208647,
40,1.2597620487213135,0.02606487274169922,38.36581171563426,31.75202812356579,18.0,-19.0,10.0,1466,1484.1369151428025,212.74115927483336,
41,1.2892181873321533,0.029456138610839844,33.948781040567226,31.80221967302792,20.0,-19.0,18.0,1378,1431.0684575714013,-794.4341434886502,
42,1.3169629573822021,0.027744770050048828,36.0428289077941,31.89155759056857,11.0,-15.0,14.0,,1431.0684575714013,-794.4341434886502,
43,1.3394958972930908,0.022532939910888672,44.37947307163263,32.10162874473613,7.0,-9.0,11.0,1443,1437.0342287857006,-264.8381802660652,
44,1.3662009239196777,0.026705026626586914,37.44613379282022,32.20609738263277,0.0,-2.0,8.0,1466,1451.5171143928503,138.7449459426861,
45,1.395810842514038,0.02960991859436035,33.772467047257095,32.23932543678276,3.0,-4.0,3.0,1569,1510.258557196425,1061.2941936673753,
46,1.4251210689544678,0.029310226440429688,34.1177848636689,32.27795939733573,4.0,-10.0,15.0,1466,1488.1292785982125,153.14611363268398,
47,1.450484037399292,0.02536296844482422,39.427561571724006,32.40297637764472,4.0,-17.0,5.0,1369,1428.5646392991061,-1097.6711849151823,
48,1.4762499332427979,0.02576589584350586,38.810992874988436,32.51481942123514,7.0,-25.0,16.0,1372,1400.282319649553,-1097.6680456610661,
49,1.505115032196045,0.02886509895324707,34.64391380122079,32.55565119730837,10.0,-25.0,15.0,1452,1426.1411598247764,-100.9083078155416,
50,1.5319669246673584,0.026851892471313477,37.24132297447281,32.63778035603261,13.0,-18.0,16.0,1410,1418.0705799123882,-200.73369046204172,
51,1.5585229396820068,0.026556015014648438,37.65625224448754,32.72329120186436,1.0,-7.0,13.0,1490,1454.035289956194,576.7812514236816,
52,1.587339162826538,0.02881622314453125,34.70267407995764,32.75922450461362,-7.0,-8.0,11.0,1355,1404.517644978097,-570.8067217291348,
53,1.6152899265289307,0.027950763702392578,35.777197741269596,32.81144711518805,-11.0,-5.0,6.0,1405,1404.7588224890485,-281.0890331145378,
54,1.6447789669036865,0.02948904037475586,33.91090341671652,32.831159132376044,-3.0,-14.0,3.0,1508,1456.3794112445244,734.7058832432236,
55,1.6726219654083252,0.027842998504638672,35.915671935743525,32.882504915911014,5.0,-24.0,17.0,1317,1386.6897056222622,-884.123360592243,
56,1.6983580589294434,0.025736093521118164,38.85593589327898,32.97302338901344,5.0,-25.0,10.0,1359,1372.8448528111312,-711.0390369367158,
57,1.7312569618225098,0.032898902893066406,30.396150389888977,32.92405532913819,-1.0,-24.0,13.0,1490,1431.4224264055656,534.7468497572507,
58,1.7579150199890137,0.026658058166503906,37.51210961256395,32.993631285067735,-3.0,-15.0,8.0,1579,1505.2112132027828,1651.359954136287,
59,1.790360927581787,0.03244590759277344,30.82052789371583,32.954249107575414,-7.0,-5.0,0.0,1851,1678.1056066013914,3490.028214272591,
60,1.8196790218353271,0.02931809425354004,34.10862900405793,32.97284811223687,-11.0,-4.0,10.0,1687,1682.5528033006958,1820.857998298618,
61,1.849273920059204,0.029594898223876953,33.789607669378874,32.98591914282071,-19.0,-7.0,-4.0,1438,1560.276401650348,-1155.406820345015,
62,1.8769381046295166,0.0276641845703125,36.147821290678436,33.03252240821122,-11.0,-11.0,6.0,1419,1489.638200825174,-1854.4119400342283,
63,1.905724048614502,0.02878594398498535,34.73917688860912,33.05830140822445,-2.0,-14.0,4.0,1419,1454.319100412587,-1540.6842084068176,
64,1.9318349361419678,0.02611088752746582,38.298200279408675,33.12912444155981,1.0,-16.0,9.0,1415,1434.6595502062935,-1146.804799805268,
65,1.9584319591522217,0.026597023010253906,37.598192835885115,33.189817852103275,-3.0,-12.0,5.0,1494,1464.3297751031469,-15.628981324647725,
66,1.9849491119384766,0.026517152786254883,37.711439386446806,33.25022268986293,-12.0,-5.0,3.0,1644,1554.1648875515734,1686.0912082744119,
67,2.0112459659576416,0.02629685401916504,38.02736248492706,33.31268334855224,-20.0,4.0,-5.0,,1554.1648875515734,1686.0912082744119,
68,2.0446488857269287,0.03340291976928711,29.937502676621317,33.257543862267646,-16.0,9.0,-2.0,,1554.1648875515734,1686.0912082744119,
69,2.0739657878875732,0.02931690216064453,34.1100159396246,33.269594128782416,-13.0,0.0,3.0,1485,1519.5824437757867,253.24174992557766,
70,2.1052920818328857,0.0313262939453125,31.922065270336095,33.24954318882793,-12.0,-3.0,0.0,1433,1476.2912218878932,-564.3517304061802,
71,2.1339468955993652,0.028654813766479492,34.898150382320885,33.271680821306525,-8.0,-7.0,8.0,1363,1419.6456109439466,-1270.5893898132354,
72,2.1634938716888428,0.02954697608947754,33.84441091270001,33.27950263330127,-12.0,52.0,7.0,1386,1402.8228054719734,-919.9736654555572,
73,2.1927130222320557,0.02921915054321289,34.224129771366094,33.292090328213675,-91.0,-116.0,-2.0,1382,1392.4114027359867,-638.1474318969613,
74,2.2223498821258545,0.029636859893798828,33.74176628642222,33.29808712623284,-138.0,-71.0,-83.0,1429,1410.7057013679932,-10.43274154089164,
75,2.249640941619873,0.027291059494018555,36.642036569491644,33.338653565753305,93.0,15.0,-98.0,1443,1426.8528506839966,290.61584709457304,
76,2.278714895248413,0.02907395362854004,34.39504694739432,33.3521320102289,123.0,58.0,-113.0,1612,1519.4264253419983,1737.344146772327,
77,2.306535005569458,0.027820110321044922,35.9452205063161,33.38340836539333,25.0,86.0,-163.0,1097,1308.2132126709992,-2927.380678267087,
78,2.342606782913208,0.03607177734375,27.722504230118442,33.296240994829326,-14.0,-43.0,-191.0,1443,1375.6066063354997,-529.5335186604668,
79,2.3683531284332275,0.02574634552001953,38.840463755232065,33.35651219050347,-22.0,-59.0,-184.0,1668,1521.8033031677498,2574.406992893598,
80,2.3962719440460205,0.02791881561279297,35.818138343296326,33.385192443943914,-4.0,-33.0,-151.0,1588,1554.9016515838748,1879.9641076984922,
81,2.423401117324829,0.027129173278808594,36.860688297535766,33.42409946951546,34.0,11.0,-90.0,1574,1564.4508257919374,1115.9766208403778,
82,2.450592041015625,0.0271909236907959,36.776977912614974,33.461301851782665,56.0,114.0,-42.0,1499,1531.7254128959687,-43.78258320793418,
83,2.478943109512329,0.0283510684967041,35.272039221952184,33.482010814007026,43.0,72.0,0.0,1471,1501.3627064479842,-557.3685779629313,
84,2.5053861141204834,0.026443004608154297,37.817185105040124,33.52776624990924,-38.0,-118.0,50.0,1443,1472.1813532239921,-830.4626072251003,
85,2.529292106628418,0.02390599250793457,41.83051591219619,33.60624096253801,-32.0,-122.0,61.0,1433,1452.590676611996,-824.9753584869457,
86,2.555677890777588,0.026385784149169922,37.8991958073552,33.65056305035128,-11.0,48.0,71.0,1471,1461.795338305998,-238.06304130275157,
87,2.582178831100464,0.026500940322875977,37.73451008969619,33.69247666046532,1.0,110.0,85.0,1447,1454.397669152999,-258.60523129841357,
88,2.6086008548736572,0.02642202377319336,37.84721445200412,33.73455921230315,1.0,14.0,98.0,1438,1446.1988345764994,-284.4541408858505,
89,2.6369988918304443,0.02839803695678711,35.21370162035094,33.750488206774186,-8.0,-12.0,73.0,1415,1430.5994172882497,-416.8836833628096,
90,2.665485143661499,0.028486251831054688,35.10465349849347,33.764960279001826,-40.0,2.0,76.0,1396,1413.2997086441248,-512.0919804698524,
91,2.6951398849487305,0.029654741287231445,33.72142047418818,33.764481208637186,-57.0,-42.0,30.0,1386,1399.6498543220623,-486.192228737769,
92,2.7223739624023438,0.02723407745361328,36.71870294498722,33.79403464423937,1.0,1.0,27.0,1372,1385.8249271610312,-496.9128111998788,
93,2.749297857284546,0.02692389488220215,37.14172872740797,33.826818637924944,0.0,41.0,19.0,1377,1381.4124635805156,-330.3996682634778,
94,2.7786779403686523,0.029380083084106445,34.0366634477274,33.829037411773186,-11.0,16.0,-25.0,1382,1381.7062317902578,-160.20038928842038,
95,2.8057501316070557,0.02707219123840332,36.93827334454729,33.85903788431318,23.0,16.0,-10.0,1400,1390.853115895129,88.83485801410164,
96,2.832834005355835,0.027083873748779297,36.92234018204546,33.888325196075634,32.0,33.0,40.0,1400,1395.4265579475646,128.84852063850175,
97,2.8598520755767822,0.027018070220947266,37.0122659324756,33.91783820862021,5.0,-1.0,42.0,1415,1405.2132789737823,245.53862093391126,
98,2.888239860534668,0.028387784957885742,35.226418739029285,33.930699918343464,-4.0,28.0,47.0,1471,1438.1066394868913,702.1269560512696,
99,2.9153738021850586,0.027133941650390625,36.854210600309294,33.957909591490456,-19.0,14.0,50.0,1499,1468.5533197434456,912.1076611533017,
100,2.943974018096924,0.028600215911865234,34.964771003184445,33.96769108194885,-34.0,-13.0,93.0,1522,1495.2766598717228,923.2415645893616,
101,2.9706029891967773,0.026628971099853516,37.55308443011908,33.99983113438845,-27.0,-8.0,113.0,1546,1520.6383299358613,937.8252508983887,
102,2.9980080127716064,0.0274050235748291,36.48966027230414,34.022590855486996,7.0,-30.0,65.0,1546,1533.3191649679306,700.2723065938662,
103,3.0252838134765625,0.027275800704956055,36.662535073380944,34.04639245454316,25.0,-16.0,68.0,1560,1546.6595824839653,594.6829158345165,
104,3.05238676071167,0.027102947235107422,36.89635637502419,34.0716980359829,2.0,11.0,69.0,1546,1546.3297912419825,291.2574103204791,
105,3.078742027282715,0.026355266571044922,37.94308045810642,34.10483862224487,-24.0,0.0,90.0,1579,1562.6648956209913,455.5307950323869,
106,3.1068828105926514,0.028140783309936523,35.53561352526031,34.11779795446486,-11.0,-4.0,64.0,1560,1561.3324478104955,204.0907222980153,
107,3.1343679428100586,0.027485132217407227,36.383306876241534,34.13766410081107,-18.0,19.0,45.0,1574,1567.6662239052478,217.2672208193943,
108,3.1625869274139404,0.028218984603881836,35.437136170464434,34.14925897019122,-32.0,-24.0,36.0,1551,1559.3331119526238,-39.01720108473347,
109,3.1902499198913574,0.027662992477416992,36.1493790238479,34.16660222146858,-26.0,-19.0,4.0,1551,1555.1665559763119,-94.81780614825519,
110,3.217473030090332,0.02722311019897461,36.733495647299925,34.18832076330153,-14.0,29.0,5.0,1555,1555.083277988156,-48.938448881848686,
111,3.2459559440612793,0.028482913970947266,35.108767348032075,34.19639758299334,13.0,13.0,-21.0,1574,1564.5416389940779,141.56647358438124,
112,3.2737841606140137,0.027828216552734375,35.93474982864976,34.21117413525327,40.0,-26.0,-39.0,1560,1562.270819497039,29.982571526133533,
113,3.30086088180542,0.02707672119140625,36.93209354747816,34.233493638845566,34.0,-33.0,-57.0,1569,1565.6354097485196,77.12196672137497,
114,3.328098773956299,0.027237892150878906,36.71356044956409,34.253791050943406,33.0,-27.0,-42.0,1593,1579.3177048742598,289.72386795450717,
115,3.3559648990631104,0.027866125106811523,35.885864868795935,34.267342912944265,41.0,13.0,-25.0,1522,1550.65885243713,-369.36191894954766,
116,3.3853840827941895,0.0294191837310791,33.991425769695205,34.26494517699074,16.0,8.0,-22.0,1551,1550.829426218565,-181.78193645982188,
117,3.4131178855895996,0.027733802795410156,36.057081943537014,34.279507453868334,23.0,-24.0,17.0,1508,1529.4147131092825,-476.9670009192787,
118,3.4424540996551514,0.029336214065551758,34.08756146125401,34.277871711294765,10.0,-17.0,45.0,1527,1528.2073565546411,-259.061420840632,
119,3.467867851257324,0.02541375160217285,39.348775247905586,34.315033070494565,-7.0,-10.0,45.0,1551,1539.6036782773206,94.68494063895255,
120,3.495638132095337,0.027770280838012695,36.00971865690222,34.328496104392315,-5.0,-6.0,25.0,1602,1570.8018391386604,609.0609679342891,
121,3.523737907409668,0.028099775314331055,35.58747316708949,34.33853571957292,10.0,-11.0,22.0,1546,1558.4009195693302,83.87178775675787,
122,3.551511764526367,0.02777385711669922,36.00508189403564,34.35156859638617,-16.0,-3.0,48.0,1574,1566.200459784665,182.34743597285768,
123,3.5795040130615234,0.02799224853515625,35.72417552466612,34.362302584708935,14.0,-2.0,43.0,1668,1617.1002298923327,1000.3498787321638,
124,3.6077630519866943,0.0282590389251709,35.386907624423124,34.37032815437163,1.0,0.0,19.0,1536,1576.5501149461663,-217.29664651378192,
125,3.6364779472351074,0.028714895248413086,34.8251313943158,34.37391943901109,-29.0,35.0,21.0,1560,1568.275057473083,-252.738305154711,
126,3.663490056991577,0.027012109756469727,37.02043302117443,34.39343304877699,-22.0,-9.0,45.0,1701,1634.6375287365415,1102.0145586868834,
127,3.6910109519958496,0.02752089500427246,36.336027583578066,34.40791741117077,13.0,-39.0,19.0,1607,1620.8187643682709,299.9477777152177,
128,3.719434976577759,0.02842402458190918,35.181506303525445,34.41382919880278,10.0,21.0,-4.0,1583,1601.9093821841354,-182.65638539585748,
129,3.748685121536255,0.029250144958496094,34.187864758240686,34.41206604921096,-13.0,33.0,2.0,1546,1573.9546910920676,-569.1837919049341,
130,3.7781178951263428,0.02943277359008789,33.975731065208585,34.40866685703377,13.0,16.0,35.0,1522,1547.9773455460338,-725.8915489824863,
131,3.805812120437622,0.027694225311279297,36.10861068544568,34.42103704923211,0.0,8.0,40.0,1518,1532.9886727730168,-633.5558494174486,
132,3.832537889480591,0.02672576904296875,37.41707108192978,34.44192955334081,-8.0,0.0,33.0,1536,1534.4943363865084,-288.60916348297894,
133,3.8586819171905518,0.026144027709960938,38.24965346173488,34.46772832129042,1.0,-8.0,-9.0,1696,1615.2471681932543,1400.0793345894072,
134,3.8867762088775635,0.02809429168701172,35.59441936250382,34.47587223929648,3.0,-7.0,-10.0,1546,1580.6235840966272,83.83648121057115,
135,3.915259838104248,0.02848362922668457,35.10788572767831,34.480470155811275,8.0,10.0,8.0,1560,1570.3117920483137,-139.0943678345999,
136,3.9436891078948975,0.028429269790649414,35.17501530513833,34.48547699354411,16.0,29.0,-19.0,1508,1539.1558960241568,-617.5017436648077,
137,3.972909927368164,0.0292208194732666,34.22217508016416,34.483540403533645,7.0,35.0,-7.0,1513,1526.0779480120784,-532.5287851117201,
138,4.000443935394287,0.027534008026123047,36.31872261572831,34.49617148212792,25.0,-4.0,-1.0,1738,1632.038974006039,1657.9201630204577,
139,4.029968023300171,0.02952408790588379,33.87064837321231,34.491588815677964,21.0,7.0,11.0,1527,1579.5194870030195,-60.47445700015567,
140,4.058197021484375,0.0282289981842041,35.42456567089805,34.49807864399642,-5.0,10.0,-2.0,1813,1696.2597435015098,2037.4992128840472,
141,4.085817813873291,0.027620792388916016,36.20460940871817,34.50961506928627,-6.0,13.0,1.0,1565,1630.6298717507548,-169.3023296981521,
142,4.114466190338135,0.02864837646484375,34.90599201065246,34.512374979153776,16.0,13.0,10.0,1677,1653.8149358753774,319.99766670119493,
143,4.140336990356445,0.025870800018310547,38.653617178140266,34.5382514353473,12.0,5.0,4.0,1748,1700.9074679376886,1070.147186493534,
