Index,Time,Difference,Hz,AveHz,0x6103 Linear-Acceleration-X,0x6103 Linear-Acceleration-Y,0x6103 Linear-Acceleration-Z,0x6103 Range,0x6103 Smoothed Range,0x6103 Velocity,
0,9.5367431640625e-07,9.5367431640625e-07,1048576.0,0.0,-47.0,-40.0,71.0,668,670.0,-1048576.0,
1,0.029433012008666992,0.029432058334350586,33.976556740949555,33.975455848879314,-13.0,6.0,84.0,691,680.5,-524109.62307711004,
2,0.05399298667907715,0.024559974670410156,40.716654370364616,37.041847895682736,-50.0,-10.0,50.0,677,678.75,-262090.4386111291,
3,0.0817568302154541,0.027763843536376953,36.018067840274796,36.694181906197784,-71.0,-30.0,45.0,714,696.375,-130727.81008272212,
4,0.11243796348571777,0.030681133270263672,32.59332017468878,35.57517297534558,-29.0,-54.0,53.0,672,684.1875,-65562.52058617557,
5,0.13962101936340332,0.027183055877685547,36.787622572666514,35.811226868256,-11.0,-27.0,95.0,677,680.59375,-32847.36305239805,
6,0.16666007041931152,0.027039051055908203,36.98354642447756,36.00142484582052,-55.0,-19.0,67.0,695,687.796875,-16290.482972279617,
7,0.1949911117553711,0.02833104133605957,35.29697296114585,35.89907220377281,-42.0,-1.0,80.0,709,698.3984375,-7958.13995368561,
8,0.22294402122497559,0.027952909469604492,35.77445135317247,35.88344713638721,-79.0,2.0,88.0,681,689.69921875,-4134.674865834046,
9,0.25031399726867676,0.027369976043701172,36.536385651317964,35.954841112380024,-66.0,-16.0,79.0,691,690.349609375,-2055.455971567522,
10,0.27594494819641113,0.025630950927734375,39.015329662152105,36.2391124220989,-65.0,-45.0,68.0,672,681.1748046875,-1206.7070005180963,
11,0.3048079013824463,0.028862953186035156,34.64648934412688,36.08830332189507,-26.0,-31.0,66.0,705,693.08740234375,-396.98865637997994,
12,0.3324761390686035,0.027668237686157227,36.14252600194745,36.09281566375476,-54.0,-5.0,54.0,668,680.543701171875,-425.17485107256545,
13,0.36104702949523926,0.028570890426635742,35.00065923978804,36.006389578040874,-1.0,26.0,50.0,635,657.7718505859375,-611.1023168451658,
14,0.38845109939575195,0.027404069900512695,36.49093012937072,36.040572473028,-5.0,12.0,78.0,644,650.8859252929688,-431.1880677934775,
15,0.42179083824157715,0.033339738845825195,29.994236146370415,35.56265011002652,-57.0,-60.0,35.0,621,635.9429626464844,-439.695409069261,
16,0.4509549140930176,0.02916407585144043,34.288760086001815,35.480265321379136,27.0,-45.0,68.0,640,637.9714813232422,-185.07000941596925,
17,0.479046106338501,0.0280911922454834,35.5983466725512,35.48718959420484,2.0,-36.0,62.0,640,638.9857406616211,-74.48202693624226,
18,0.5071709156036377,0.02812480926513672,35.55579668373402,35.490994152486635,-16.0,2.0,47.0,626,632.4928703308105,-152.67060215619546,
19,0.5357270240783691,0.028556108474731445,35.018777186845114,35.465823350402005,-25.0,2.0,24.0,626,629.2464351654053,-133.1783959325307,
20,0.561363935470581,0.025636911392211914,39.0062587767021,35.62751138124747,4.0,-11.0,25.0,602,615.6232175827026,-332.2845731673739,
21,0.5908470153808594,0.02948307991027832,33.917759034780566,35.54219527784772,-14.0,-26.0,8.0,565,590.3116087913513,-595.3988104675307,
22,0.6169400215148926,0.026093006134033203,38.32444582518594,35.65986843579888,-55.0,-23.0,-19.0,588,589.1558043956757,-319.8471867070571,
23,0.6430299282073975,0.026089906692504883,38.3289987114933,35.768164110367465,-8.0,-2.0,14.0,607,598.0779021978378,11.063944227916949,
24,0.6696810722351074,0.02665114402770996,37.521841424903606,35.83795480421497,-54.0,10.0,-22.0,579,588.5389510989189,-173.4275331328143,
25,0.6951248645782471,0.02544379234313965,39.30231730057441,35.96476154707578,-6.0,20.0,-5.0,555,571.7694755494595,-416.25339107094715,
26,0.7217860221862793,0.026661157608032227,37.507748714509276,36.02175603407556,-5.0,-12.0,-2.0,522,546.8847377747297,-674.8119411759833,
27,0.7487118244171143,0.02692580223083496,37.13909771107274,36.06193881206563,26.0,-30.0,-13.0,536,541.4423688873649,-438.4683055317646,
28,0.7759749889373779,0.027263164520263672,36.67952776563183,36.08363722952369,9.0,-31.0,-41.0,518,529.7211844436824,-434.19790788995317,
29,0.8037858009338379,0.02781081199645996,35.95723850591957,36.0792638614763,55.0,19.0,-29.0,522,525.8605922218412,-286.5070715923979,
30,0.829481840133667,0.0256960391998291,38.916503521159434,36.16715707141418,-10.0,-16.0,-66.0,522,523.9302961109206,-180.81372349496004,
31,0.8551368713378906,0.025655031204223633,38.9787091677896,36.25150667576694,-16.0,-29.0,-92.0,522,522.9651480554603,-109.21697442630244,
32,0.8830368518829346,0.027899980545043945,35.84231890002649,36.23857818817542,12.0,-40.0,-47.0,499,510.98257402773015,-269.3501069856907,
33,0.9092960357666016,0.026259183883666992,38.08191467146061,36.291811139568686,70.0,-34.0,-23.0,518,514.4912870138651,-67.86579922052738,
34,0.9364111423492432,0.0271151065826416,36.87981077825357,36.30883749920117,15.0,-5.0,-51.0,532,523.2456435069325,127.49660586458805,
35,0.9692809581756592,0.032869815826416016,30.423048467352356,36.109241293541515,-40.0,7.0,-58.0,494,508.62282175346627,-158.6871045352853,
36,0.9968287944793701,0.027547836303710938,36.3004915876203,36.11452658608473,3.0,-11.0,-47.0,546,527.3114108767331,259.8589338591779,
37,1.0432729721069336,0.04644417762756348,21.53122417236051,35.46531060349138,17.0,-27.0,-71.0,508,517.6557054383666,25.979887761713414,
38,1.0701160430908203,0.02684307098388672,37.25356165843607,35.51016756112211,2.0,-34.0,-84.0,527,522.3278527191833,100.01700728245669,
39,1.0964610576629639,0.026345014572143555,37.95784577235993,35.56897869508105,25.0,5.0,-69.0,541,531.6639263595916,227.19712532223605,
40,1.1226780414581299,0.026216983795166016,38.14321310998345,35.629092689875854,0.0,5.0,-80.0,518,524.8319631797958,-16.697951102138063,
41,1.1472880840301514,0.024610042572021484,40.63381837205247,35.73644716676278,48.0,7.0,-31.0,532,528.4159815898979,64.46720100802125,
42,1.1775999069213867,0.03031182289123535,32.990427648914164,35.66576368862078,15.0,-43.0,-56.0,527,527.707990794949,20.555140955580256,
43,1.2053370475769043,0.027737140655517578,36.05274286991353,35.674668829306405,47.0,-57.0,-27.0,518,522.8539953974745,-77.2223535006554,
44,1.2333290576934814,0.02799201011657715,35.72447980103401,35.67579935421848,46.0,-38.0,-15.0,508,515.4269976987373,-171.27399138575896,
45,1.2599201202392578,0.026591062545776367,37.60662058082506,35.71655002338921,13.0,-26.0,-29.0,480,497.71349884936865,-418.7094108864235,
46,1.2875800132751465,0.027659893035888672,36.15342975847742,35.72593510751408,-30.0,-20.0,-57.0,518,507.8567494246843,-25.99805684455623,
47,1.314866065979004,0.027286052703857422,36.6487601139402,35.74508553843119,16.0,-17.0,-29.0,518,512.9283747123421,79.9353608553039,
48,1.3417298793792725,0.026863813400268555,37.22479698247171,35.7747119876367,71.0,-9.0,10.0,518,515.4641873561711,87.16523585371145,
49,1.370581865310669,0.028851985931396484,34.65965921298362,35.751239119812226,-20.0,-51.0,-34.0,551,533.2320936780856,351.49740694974156,
50,1.3998141288757324,0.029232263565063477,34.208777495942385,35.719027954202566,-6.0,-8.0,11.0,541,537.1160468390428,242.18134821879556,
51,1.4273159503936768,0.027501821517944336,36.361227904396145,35.731401996827245,-37.0,-1.0,-1.0,536,536.5580234195214,110.9454657427934,
52,1.4556400775909424,0.028324127197265625,35.30558922558922,35.723116449266115,6.0,-19.0,28.0,560,548.2790117097607,262.3809318179606,
53,1.4833898544311523,0.02774977684020996,36.03632583275339,35.728975657801264,8.0,-45.0,35.0,560,554.1395058548803,236.78580418621834,
54,1.5088820457458496,0.025492191314697266,39.22769869624586,35.788085723630886,55.0,-41.0,52.0,574,564.0697529274402,313.16327216393654,
55,1.53444504737854,0.02556300163269043,39.119036737891605,35.84357751615967,31.0,-52.0,34.0,560,562.0348764637201,116.78043251130097,
56,1.5614440441131592,0.02699899673461914,37.03841330954946,35.86423747371995,29.0,-27.0,36.0,597,579.5174382318601,382.15339049469776,
57,1.588775873184204,0.027331829071044922,36.58737940299028,35.87667773791236,13.0,-5.0,48.0,654,616.75871911593,872.3571318267475,
58,1.6159989833831787,0.02722311019897461,36.733495647299925,35.89111168781428,-16.0,-52.0,34.0,579,597.879359557965,89.42612984021463,
59,1.6434190273284912,0.0274200439453125,36.46967167501391,35.900764819492935,29.0,-55.0,84.0,583,590.4396797789825,-90.94827453325877,
60,1.668531894683838,0.02511286735534668,39.820223865718546,35.95975611324416,13.0,-53.0,80.0,616,603.2198398894913,208.98028105346287,
61,1.6974220275878906,0.028890132904052734,34.61389406968492,35.936849533338275,17.0,-29.0,82.0,681,642.1099199447456,777.558696223801,
62,1.7263360023498535,0.02891397476196289,34.585352177713276,35.91421363836869,-51.0,-32.0,67.0,658,650.0549599723728,526.1703518226585,
63,1.752755880355835,0.026419878005981445,37.850288323572144,35.943396742283404,-19.0,17.0,69.0,667,658.5274799861863,423.42883858636844,
64,1.7788679599761963,0.026112079620361328,38.296451854421946,35.97793733991162,-9.0,-22.0,122.0,621,639.7637399930932,-147.5779133340078,
65,1.8075640201568604,0.028696060180664062,34.84798936523762,35.959998802343556,-200.0,-129.0,-43.0,635,637.3818699965466,-115.29064682152087,
66,1.8346400260925293,0.027076005935668945,36.933069167437154,35.974359580810386,-174.0,-135.0,-68.0,644,640.6909349982733,3.4616398833985897,
67,1.8635540008544922,0.02891397476196289,34.585352177713276,35.95280843446372,209.0,62.0,-22.0,644,642.3454674991367,30.342114557616174,
68,1.8918418884277344,0.028287887573242188,35.35081922999124,35.94380715214695,207.0,93.0,-50.0,649,645.6727337495684,73.98185115333807,
69,1.918652057647705,0.026810169219970703,37.29927967985771,35.962747766051436,-3.0,-35.0,-208.0,569,607.3363668747842,-677.9685094094349,
70,1.9470698833465576,0.02841782569885254,35.189180572684634,35.951457417484356,-114.0,-66.0,-276.0,626,616.6681834373921,-174.7947656583269,
71,1.9737088680267334,0.02663898468017578,37.53896824544446,35.97288391929053,-123.0,1.0,-310.0,667,641.8340917186961,384.95373309065445,
72,2.0008699893951416,0.027161121368408203,36.81733115640526,35.98434699985951,76.0,9.0,-237.0,691,666.417045859348,645.0162482448809,
73,2.0287599563598633,0.02788996696472168,35.85518768325939,35.982571408290944,99.0,60.0,-162.0,728,697.208522929674,874.5252188230985,
74,2.0635178089141846,0.03475785255432129,28.77047707240114,35.861091036058724,27.0,37.0,-149.0,756,726.604261464837,860.127320187652,
75,2.0921308994293213,0.02861309051513672,34.949038429490386,35.848617321439136,-129.0,25.0,-228.0,780,753.3021307324185,896.596089602934,
76,2.1188929080963135,0.026762008666992188,37.36640296486352,35.867787234363355,-77.0,45.0,-226.0,798,775.6510653662092,865.8476934822756,
77,2.1443538665771484,0.02546095848083496,39.275819123334365,35.90825245784112,-23.0,27.0,-158.0,813,794.3255326831046,799.6513470226394,
78,2.1761257648468018,0.03177189826965332,31.474354837499344,35.843516611040705,110.0,67.0,-59.0,,794.3255326831046,799.6513470226394,
79,2.200144052505493,0.024018287658691406,41.63494143339289,35.90673979280398,113.0,-17.0,-11.0,929,861.6627663415522,1801.6165633393998,
80,2.2269480228424072,0.026803970336914062,37.30790578524159,35.923604493422566,-49.0,-35.0,7.0,1032,946.8313831707761,2489.5396479317124,
81,2.2580559253692627,0.03110790252685547,32.146172476164196,35.87156504405619,21.0,-58.0,48.0,1041,993.915691585388,2001.5599735743676,
82,2.2873408794403076,0.029284954071044922,34.14722787592608,35.849488258201674,-32.0,77.0,-32.0,752,872.957845792694,-1064.4075750449404,
83,2.316074848175049,0.02873396873474121,34.802014620101396,35.836492963688045,13.0,-15.0,76.0,756,814.4789228963471,-1549.7959523256945,
84,2.3440070152282715,0.027932167053222656,35.80101744682304,35.83607022260539,7.0,-101.0,68.0,780,797.2394614481735,-1083.493106202794,
85,2.373162031173706,0.02915501594543457,34.29941530032301,35.81719195042116,-58.0,-68.0,47.0,752,774.6197307240868,-929.6683221448601,
86,2.399378776550293,0.026216745376586914,38.14355998945081,35.84261094600766,16.0,-36.0,123.0,775,774.8098653620434,-461.2079550879452,
87,2.4243078231811523,0.024929046630859375,40.11384850803366,35.88653188679624,4.0,-7.0,79.0,780,777.4049326810217,-178.5549088931504,
88,2.4495978355407715,0.02529001235961914,39.541301355657374,35.924264270332024,-49.0,-37.0,116.0,756,766.7024663405109,-300.87217785603366,
89,2.477630853652954,0.028033018112182617,35.67222037948954,35.921412533582526,44.0,190.0,205.0,756,761.3512331702555,-245.88127340371034,
90,2.5038809776306152,0.026250123977661133,38.09505817385855,35.944200544694276,75.0,165.0,121.0,784,772.6756165851277,92.76088578446391,
91,2.5308520793914795,0.026971101760864258,37.076720441988954,35.956269724732444,-94.0,11.0,25.0,952,862.3378082925639,1708.5704509685468,
92,2.5581700801849365,0.02731800079345703,36.60589980799441,35.963206947267985,-111.0,-3.0,35.0,1424,1143.1689041462819,5994.322704379512,
93,2.586648941040039,0.02847886085510254,35.11376403318571,35.95385462806816,-21.0,-111.0,168.0,1350,1246.584452073141,4812.815925822924,
94,2.614309072494507,0.027660131454467773,36.15311813127613,35.95596289244699,-76.0,100.0,155.0,1200,1223.2922260365704,1985.3646631912013,
95,2.641789197921753,0.027480125427246094,36.38993579732778,35.960477117074575,-83.0,25.0,149.0,1153,1188.1461130182852,353.19993346508875,
96,2.6688449382781982,0.027055740356445312,36.96073316884033,35.9706173345291,-104.0,114.0,53.0,1036,1112.0730565091426,-1229.258004753721,
97,2.698094129562378,0.029249191284179688,34.18897945875448,35.95130315773419,-139.0,-34.0,-10.0,1097,1104.5365282545713,-743.4621072197908,
98,2.7281720638275146,0.03007793426513672,33.24696407622309,35.921487980677426,-77.0,-126.0,24.0,1074,1089.2682641272856,-625.5427680829712,
99,2.7564468383789062,0.0282747745513916,35.36721391650435,35.91580240967857,-26.0,-83.0,19.0,1130,1109.634132063643,47.37061990872701,
100,2.78413987159729,0.02769303321838379,36.11016504093738,35.917735678498424,-68.0,-33.0,-19.0,1097,1103.3170660318215,-90.36983853742282,
101,2.8124887943267822,0.028348922729492188,35.27470900894839,35.91125419014375,-70.0,33.0,-29.0,1041,1072.1585330159107,-594.7390119096926,
102,2.844999074935913,0.03251028060913086,30.75950072603001,35.852384241037996,-44.0,50.0,-28.0,1051,1061.5792665079553,-460.0759838710071,
103,2.874624013900757,0.02962493896484375,33.75534380633531,35.830772825219974,-91.0,-56.0,-46.0,1382,1221.7896332539776,2473.9400134900234,
104,2.9011659622192383,0.026541948318481445,37.67620929710308,35.84765620248954,-22.0,-67.0,44.0,1345,1283.3948166269888,2397.494898019004,
105,2.9272968769073486,0.02613091468811035,38.268847911971605,35.86926930039674,-20.0,-9.0,77.0,1313,1298.1974083134944,1481.9865139864507,
106,2.9542739391326904,0.026977062225341797,37.06852850198851,35.88022038034809,-96.0,-2.0,95.0,1299,1298.5987041567473,748.4309801949004,
107,2.983604907989502,0.029330968856811523,34.09365728359737,35.86265718811335,-131.0,-39.0,60.0,1242,1270.2993520783737,-108.19871545651512,
108,3.0104711055755615,0.02686619758605957,37.22149354394995,35.87478378383302,-27.0,-62.0,109.0,1280,1275.149676039187,36.16879326848115,
109,3.0386531352996826,0.028182029724121094,35.483604615749044,35.871155787332086,11.0,-40.0,138.0,1228,1251.5748380195935,-400.1757189495509,
110,3.067568063735962,0.028914928436279297,34.584211481060045,35.85902503693171,-53.0,-2.0,111.0,1247,1249.2874190097968,-239.64215086507713,
111,3.094726085662842,0.027158021926879883,36.82153297807899,35.86747160410662,-84.0,-52.0,101.0,1238,1243.6437095048984,-223.72609325919618,
112,3.122687816619873,0.02796173095703125,35.76316507503411,35.86653760388813,-72.0,-82.0,95.0,1223,1233.3218547524493,-296.4341443257793,
113,3.1514840126037598,0.02879619598388672,34.72680907435006,35.856123511361005,0.0,-86.0,116.0,1219,1226.1609273762247,-272.5551510576098,
114,3.1826632022857666,0.031179189682006836,32.072674440833495,35.81905867957564,-35.0,-104.0,99.0,1228,1227.0804636881123,-121.53158114495594,
115,3.2110729217529297,0.028409719467163086,35.1992212086372,35.81357471546343,-113.0,-88.0,42.0,1200,1213.540231844056,-299.06859852006323,
116,3.2376418113708496,0.026568889617919922,37.638004989321416,35.82854644161037,-42.0,-74.0,48.0,1200,1206.770115922028,-276.9411276858192,
117,3.265805959701538,0.028164148330688477,35.50613312565077,35.82576596519306,-12.0,-39.0,-45.0,1223,1214.885057961014,5.594542328676567,
118,3.2937140464782715,0.0279080867767334,35.83190807739951,35.82581800814457,1.0,-27.0,-76.0,1223,1218.942528980507,75.49073546293202,
119,3.32238507270813,0.0286710262298584,34.878416697850405,35.81764226474843,15.0,-36.0,-19.0,1247,1232.9712644902534,282.39540915789905,
120,3.3507509231567383,0.0283658504486084,35.253658331582265,35.81286784723114,-51.0,-39.0,-83.0,1209,1220.9856322451267,-70.07098744989611,
121,3.3780319690704346,0.02728104591369629,36.65548612628359,35.81967284735222,-34.0,-7.0,-75.0,1205,1212.9928161225635,-181.52577397022415,
122,3.4042279720306396,0.026196002960205078,38.17376267360795,35.83778789269109,22.0,42.0,-27.0,1256,1234.4964080612817,319.6736206642582,
123,3.4344050884246826,0.03017711639404297,33.13769238062131,35.81406294049562,29.0,27.0,6.0,1205,1219.7482040306409,-84.52391383487901,
124,3.4625020027160645,0.028096914291381836,35.59109693076616,35.81225365436081,-16.0,-44.0,-15.0,1167,1193.3741020153204,-511.6035675620318,
125,3.488468885421753,0.025966882705688477,38.510591022192024,35.83233908789403,-11.0,-48.0,-18.0,1172,1182.68705100766,-461.58410907567196,
126,3.5150609016418457,0.026592016220092773,37.60527188774824,35.84575161731816,-16.0,3.0,12.0,1102,1142.34352550383,-989.3566772787532,
127,3.542038917541504,0.026978015899658203,37.067218127507644,35.85505494336847,-30.0,0.0,29.0,1148,1145.1717627519151,-442.2608951438206,
128,3.568159818649292,0.026120901107788086,38.28351846950045,35.8728326379881,-24.0,-28.0,1.0,1102,1123.5858813759576,-634.322191740369,
129,3.5951590538024902,0.026999235153198242,37.03808623932605,35.88158355985965,-4.0,-59.0,5.0,1107,1115.292940687979,-470.73842205966946,
130,3.6224710941314697,0.027312040328979492,36.61388852516259,35.88710485795306,49.0,-63.0,76.0,1116,1115.6464703439894,-228.89716332208005,
131,3.6500980854034424,0.027626991271972656,36.196485898719324,35.8894465120985,-18.0,-29.0,65.0,1130,1122.8232351719948,15.43825178662091,
132,3.6782240867614746,0.028126001358032227,35.55428968627351,35.886883693434946,-68.0,-21.0,23.0,1144,1133.4116175859974,195.95033372155635,
133,3.7044730186462402,0.026248931884765625,38.09678825752071,35.90254250214607,-29.0,2.0,28.0,1153,1143.2058087929986,284.5387811441757,
134,3.730220079421997,0.025747060775756836,38.83938476354511,35.922813439137215,29.0,-21.0,71.0,1134,1138.6029043964993,52.88240312936303,
135,3.7576308250427246,0.02741074562072754,36.48204298550044,35.92689284436691,24.0,-42.0,37.0,1200,1169.3014521982495,586.4140718126275,
136,3.786534070968628,0.02890324592590332,34.59819020201437,35.91675063555153,-4.0,-17.0,4.0,1158,1163.6507260991248,195.45458772781106,
137,3.8134329319000244,0.026898860931396484,37.176295403378774,35.925635102684346,-4.0,-19.0,30.0,1181,1172.3253630495624,258.9727267571723,
138,3.8417539596557617,0.028321027755737305,35.30945305462719,35.921092669965105,17.0,-4.0,-1.0,1167,1169.6626815247812,82.47744922924385,
139,3.8698580265045166,0.028104066848754883,35.58203890496026,35.918630360078865,60.0,-7.0,28.0,1158,1163.8313407623905,-62.506772323111484,
140,3.8988280296325684,0.028970003128051758,34.51846365289814,35.90822650702904,13.0,-27.0,2.0,1153,1158.4156703811952,-124.7236967662382,
141,3.927119016647339,0.028290987014770508,35.34694634294334,35.90418304163711,42.0,12.0,21.0,1186,1172.2078351905975,181.39360635236753,
142,3.9554619789123535,0.02834296226501465,35.28212720497312,35.899725684898684,38.0,18.0,-4.0,1177,1174.6039175952988,132.9662452743174,
143,3.9849798679351807,0.02951788902282715,33.87776135436607,35.88474841507682,36.0,22.0,-4.0,1223,1198.8019587976494,476.3708551853346,
