Index,Time,Difference,Hz,AveHz,0x6103 Linear-Acceleration-X,0x6103 Linear-Acceleration-Y,0x6103 Linear-Acceleration-Z,0x6103 Range,0x6103 Smoothed Range,0x6103 Velocity,
0,0.0,0.0,0,0,-3.0,12.0,15.0,1504,1489.5,,
1,0.023868083953857422,0.023868083953857422,41.896953351313556,41.896953351313556,-7.0,16.0,-33.0,1433,1461.25,-591.7944660873039,
2,0.055744171142578125,0.0318760871887207,31.37147900492154,35.878190652159034,-5.0,20.0,-54.0,1415,1438.125,-658.6299590380572,
3,0.08463120460510254,0.028887033462524414,34.617607976163946,35.44791798720452,-8.0,27.0,-104.0,1438,1438.0625,-330.39677976828375,
4,0.11812996864318848,0.03349876403808594,29.851847634231053,33.86100958074406,-10.0,28.0,-117.0,,1438.0625,-330.39677976828375,
5,0.14166617393493652,0.023536205291748047,42.48773273364533,35.2942404041798,-11.0,31.0,-151.0,1382,1410.03125,-760.6905189791397,
6,0.1676170825958252,0.025950908660888672,38.53429616154934,35.79587418585366,-10.0,34.0,-171.0,1369,1389.515625,-775.6228443342127,
7,0.1936478614807129,0.026030778884887695,38.416061402625,36.14808832111576,-11.0,39.0,-196.0,1350,1369.7578125,-767.3200912578823,
8,0.22290420532226562,0.029256343841552734,34.18062097628555,35.889856759023154,-11.0,37.0,-219.0,1284,1326.87890625,-1116.473866833407,
9,0.24746012687683105,0.02455592155456543,40.72337492111267,36.369495617690326,-8.0,40.0,-213.0,1350,1338.439453125,-322.84469107484233,
10,0.2735292911529541,0.026069164276123047,38.35949589361819,36.55915590556672,-12.0,40.0,-227.0,1350,1344.2197265625,-50.55815794253539,
11,0.29923105239868164,0.02570176124572754,38.90783944490311,36.76089066232373,-8.0,39.0,-218.0,1364,1354.10986328125,167.12284679936522,
12,0.32603907585144043,0.02680802345275879,37.30226518796525,36.80540428677879,-7.0,39.0,-208.0,,1354.10986328125,167.12284679936522,
13,0.34835219383239746,0.02231311798095703,44.8166858999017,37.31855355059048,-16.0,38.0,-199.0,1369,1361.554931640625,250.39306848238553,
14,0.3784620761871338,0.030109882354736328,33.211687386174674,36.99181735999773,-8.0,37.0,-190.0,1327,1344.2774658203125,-161.71036258357566,
15,0.4077482223510742,0.02928614616394043,34.145837912647046,36.787407468045046,-8.0,35.0,-171.0,1369,1356.6387329101562,130.18772993058366,
16,0.4335770606994629,0.025828838348388672,38.7164140528366,36.90232129483095,-4.0,28.0,-135.0,1382,1369.3193664550781,310.56819435403406,
17,0.46133995056152344,0.027762889862060547,36.01930508561909,36.849182428940566,-4.0,26.0,-106.0,1386,1377.659683227539,305.49030434600525,
18,0.48797011375427246,0.026630163192749023,37.55140337526299,36.887504977536956,-5.0,22.0,-74.0,1433,1405.3298416137695,672.2717916823808,
19,0.5131940841674805,0.025223970413208008,39.6448292484664,37.02303005075048,-5.0,19.0,-51.0,1447,1426.1649208068848,749.1374743358547,
20,0.5384740829467773,0.025279998779296875,39.55696393541572,37.14199184954422,-4.0,12.0,-18.0,1447,1436.5824604034424,580.6118562263248,
21,0.5647592544555664,0.026285171508789062,38.04426384152094,37.18398562630764,0.0,13.0,19.0,1419,1427.7912302017212,123.07798747024825,
22,0.5918190479278564,0.02705979347229004,36.955197053666616,37.173524706629294,-5.0,9.0,26.0,1433,1430.3956151008606,109.6617723107693,
23,0.6179699897766113,0.026150941848754883,38.23954050234763,37.21863582455553,-1.0,5.0,75.0,1466,1448.1978075504303,395.2047157583385,
24,0.6455099582672119,0.027539968490600586,36.31086216897092,37.17990666546012,0.0,-2.0,120.0,1410,1429.0989037752151,-149.14647340096857,
25,0.6719481945037842,0.026438236236572266,37.824005771485254,37.20524916130154,2.0,-5.0,142.0,1490,1459.5494518876076,501.30761707352593,
26,0.695885181427002,0.023936986923217773,41.77635235410711,37.36248549894921,3.0,-6.0,156.0,1490,1474.7747259438038,568.6820153665122,
27,0.7215309143066406,0.025645732879638672,38.99284160422438,37.420434058526524,7.0,-10.0,186.0,1475,1474.887362971902,286.53702658095614,
28,0.7457449436187744,0.02421402931213379,41.29837240673093,37.54634910982867,3.0,-11.0,190.0,1461,1467.943681485951,-0.11285864978444238,
29,0.77199387550354,0.026248931884765625,38.09678825752071,37.56506485376517,5.0,-17.0,216.0,1447,1457.4718407429755,-199.5281790506997,
30,0.7971432209014893,0.02514934539794922,39.76246634560692,37.63439142852272,6.0,-16.0,223.0,1438,1447.7359203714877,-293.3261925827448,
31,0.8223741054534912,0.025230884552001953,39.63396518813902,37.6957394383245,8.0,-16.0,223.0,1372,1409.8679601857439,-897.0918041651759,
32,0.8509058952331543,0.028531789779663086,35.048624980153924,37.60697884368491,8.0,-17.0,228.0,1391,1400.433980092872,-613.869917255241,
33,0.8962099552154541,0.045304059982299805,22.073076902836032,36.82172889059976,9.0,-16.0,214.0,1490,1445.216990046436,187.31445269512466,
34,0.9239380359649658,0.02772808074951172,36.06452278589854,36.79900456148038,10.0,-16.0,205.0,1480,1462.608495023218,407.26539010567376,
35,0.9506309032440186,0.026692867279052734,37.4631915539756,36.817654339410645,10.0,-14.0,179.0,1419,1440.804247511609,-204.79565555601482,
36,0.979572057723999,0.02894115447998047,34.552871783042804,36.750742036930625,9.0,-11.0,144.0,1429,1434.9021237558045,-204.36549046898932,
37,1.005526065826416,0.025954008102416992,38.52969437529281,36.79665923885389,13.0,-7.0,122.0,1475,1454.9510618779022,284.05698396229707,
38,1.030601978302002,0.025075912475585938,39.87890773560508,36.87165443113936,8.0,-5.0,95.0,1461,1457.9755309389511,202.33475329852865,
39,1.0580029487609863,0.027400970458984375,36.4950577753028,36.86190104259388,11.0,0.0,65.0,1457,1457.4877654694756,92.26686215461017,
40,1.0847980976104736,0.026795148849487305,37.320188278003684,36.87322100592685,8.0,0.0,30.0,,1457.4877654694756,92.26686215461017,
41,1.1086931228637695,0.0238950252532959,41.849715135248395,36.98047652184983,12.0,7.0,2.0,1405,1431.2438827347378,-503.0160771685148,
42,1.136538028717041,0.027844905853271484,35.91321174758113,36.95432879391716,9.0,8.0,-36.0,1438,1434.621941367369,-190.8495710995447,
43,1.165273904800415,0.028735876083374023,34.79970463049773,36.90119535231927,11.0,14.0,-60.0,1457,1445.8109706836844,99.26267210510828,
44,1.1907830238342285,0.025509119033813477,39.20166739880179,36.95047638345014,11.0,18.0,-97.0,1471,1458.4054853418422,296.4943233917717,
45,1.2189581394195557,0.02817511558532715,35.492312248783584,36.91677223750123,9.0,19.0,-119.0,1369,1413.702742670921,-645.0546889307932,
46,1.2449860572814941,0.026027917861938477,38.42028414659839,36.948204946522786,10.0,27.0,-153.0,1331,1372.3513713354605,-1116.8930627453447,
47,1.2704589366912842,0.02547287940979004,39.25743862374931,36.99450540479829,6.0,28.0,-173.0,1359,1365.6756856677302,-689.481691558854,
48,1.2976961135864258,0.0272371768951416,36.71452455773321,36.988628922793815,2.0,30.0,-195.0,1355,1360.3378428338651,-442.72902668405766,
49,1.3252429962158203,0.02754688262939453,36.30174831227281,36.97435122458114,1.0,30.0,-214.0,1378,1369.1689214169326,-61.07271731782038,
50,1.3545701503753662,0.0293271541595459,34.09809197850529,36.912078703450284,1.0,34.0,-211.0,1419,1394.0844607084664,394.24981656948137,
51,1.3810241222381592,0.02645397186279297,37.80150690363748,36.929115993532946,0.0,33.0,-224.0,1242,1318.0422303542332,-1240.130539567028,
52,1.4100401401519775,0.02901601791381836,34.46372286404496,36.87838276319943,0.0,35.0,-219.0,1429,1373.5211151771166,335.93918588754786,
53,1.4381251335144043,0.028084993362426758,35.60620389313819,36.85353851683391,0.0,34.0,-212.0,1532,1452.7605575885582,1578.6774643839597,
54,1.4640130996704102,0.02588796615600586,38.627986222394135,36.884915860491205,1.0,33.0,-192.0,1374,1413.380278794279,28.74829884225346,
55,1.4928042888641357,0.028791189193725586,34.732848069295045,36.843409688921184,-2.0,30.0,-178.0,1336,1374.6901393971395,-657.5352173092205,
56,1.5189399719238281,0.026135683059692383,38.261865883361764,36.86781639505652,-2.0,30.0,-164.0,1372,1373.3450696985697,-354.50004685983765,
57,1.5472872257232666,0.028347253799438477,35.276785789380725,36.83866773562732,-6.0,26.0,-131.0,1475,1424.1725348492848,719.2647767395777,
58,1.5753679275512695,0.02808070182800293,35.61164553952742,36.81679624527739,-6.0,19.0,-76.0,1391,1407.5862674246423,64.30025019469878,
59,1.6140170097351074,0.03864908218383789,25.873835638409435,36.55475725728757,-6.0,19.0,-54.0,1475,1441.2931337123212,468.2130842039727,
60,1.642042875289917,0.02802586555480957,35.68132438387396,36.53984978279357,-7.0,15.0,-21.0,1579,1510.1465668561605,1462.497383576341,
61,1.668720006942749,0.02667713165283203,37.48528938619383,36.55496413191432,-8.0,15.0,0.0,1369,1439.5732834280802,-591.4812843295618,
62,1.696455955505371,0.02773594856262207,36.05429241917599,36.54677847591411,-10.0,8.0,62.0,1490,1464.7866417140401,158.78425409094484,
63,1.7224059104919434,0.025949954986572266,38.535712316936475,36.57674396972216,-11.0,5.0,81.0,1508,1486.3933208570202,495.70651283458795,
64,1.7542879581451416,0.03188204765319824,31.36561399310515,36.482038027365256,-12.0,1.0,115.0,1682,1584.19666042851,1781.6841545352634,
65,1.78304123878479,0.028753280639648438,34.778640132669985,36.45456907339953,-12.0,0.0,141.0,1461,1522.598330214255,-180.31100237984458,
66,1.8085079193115234,0.0254666805267334,39.266994336001495,36.494172513839686,-14.0,-2.0,162.0,1494,1508.2991651071275,-370.8981188254845,
67,1.8351540565490723,0.026646137237548828,37.5288917521161,36.50919646821946,-14.0,-2.0,191.0,1504,1506.1495825535637,-225.78478489520757,
68,1.865830898284912,0.030676841735839844,32.59787981471695,36.444889010309666,-81.0,55.0,213.0,1317,1411.574791276782,-1654.3612322188399,
69,1.8936741352081299,0.027843236923217773,35.91536439379019,36.43710325716433,-197.0,134.0,220.0,1490,1450.787395638391,-123.0131288710628,
70,1.9269790649414062,0.03330492973327637,30.02558504126966,36.326289825119865,-100.0,83.0,201.0,1438,1444.3936978191955,-157.49382323474873,
71,1.9522531032562256,0.025274038314819336,39.56629279198543,36.368235185067356,-5.0,55.0,226.0,1424,1434.1968489095977,-280.4726663737653,
72,1.9763140678405762,0.024060964584350586,41.56109355027299,36.43145650360671,100.0,-5.0,234.0,1475,1454.598424454799,283.7195617166526,
73,2.0020639896392822,0.025749921798706055,38.835069396220476,36.46237102199347,94.0,-25.0,226.0,1644,1549.2992122273995,1980.7156133711703,
74,2.0284440517425537,0.026380062103271484,37.907416445239775,36.48116394259414,27.0,-31.0,192.0,1270,1409.6496061136997,-1656.520080997274,
75,2.0545520782470703,0.0261080265045166,38.30239715081503,36.50430709159219,-145.0,-124.0,104.0,1294,1351.8248030568498,-1935.6743264242025,
76,2.0917739868164062,0.03722190856933594,26.865898027158597,36.33279717550597,-106.0,-59.0,-48.0,1405,1378.4124015284249,-610.6873085499137,
77,2.1229419708251953,0.031167984008789062,32.08420537298819,36.27042145201445,55.0,-62.0,-70.0,1461,1419.7062007642126,357.09571338102035,
78,2.147289276123047,0.024347305297851562,41.07230708969839,36.324868226804455,171.0,278.0,-212.0,1443,1431.3531003821063,417.7303755650211,
79,2.174915075302124,0.02762579917907715,36.19804782905127,36.32325735248576,98.0,307.0,-215.0,1410,1420.6765501910531,15.630050550006558,
80,2.2002551555633545,0.02534008026123047,39.463174137217266,36.35941940539017,-17.0,-24.0,-370.0,1410,1415.3382750955266,-97.5176145685643,
81,2.228947162628174,0.028692007064819336,34.85291209293436,36.3400269679305,45.0,-74.0,-261.0,1369,1392.1691375477633,-452.5147643949315,
82,2.2593512535095215,0.030404090881347656,32.89031084344908,36.2936041364205,237.0,30.0,-120.0,1350,1371.0845687738815,-572.9963926839912,
83,2.29125714302063,0.0319058895111084,31.342175859157244,36.22465520852833,444.0,68.0,-52.0,1369,1370.0422843869408,-302.83192661737127,
84,2.3197309970855713,0.028473854064941406,35.11993837291087,36.211095211270035,122.0,-61.0,-192.0,1355,1362.5211421934705,-283.4869884729734,
85,2.353304147720337,0.033573150634765625,29.785706169753436,36.11942811656544,-119.0,160.0,-115.0,1368,1365.2605710967352,-100.94558204369979,
86,2.3838350772857666,0.030530929565429688,32.7536702692572,36.07632122685247,-167.0,64.0,-284.0,1377,1371.1302855483677,45.654554839882316,
87,2.4141781330108643,0.030343055725097656,32.956469811735865,36.03710878264694,17.0,107.0,-172.0,,1371.1302855483677,45.654554839882316,
88,2.434382200241089,0.02020406723022461,49.49498477732411,36.14880193885945,-33.0,28.0,-117.0,1574,1472.5651427741839,2533.0856345608486,
89,2.461353063583374,0.026970863342285156,37.077048194901174,36.158973418640265,-27.0,72.0,16.0,1621,1546.782571387092,2642.424406071641,
90,2.487084150314331,0.02573108673095703,38.86349653459842,36.18695410391535,37.0,104.0,63.0,1658,1602.391285693546,2401.786740906994,
91,2.5142321586608887,0.027148008346557617,36.83511465130371,36.19395276865273,-97.0,66.0,62.0,1663,1632.695642846773,1759.025605540081,
92,2.540694236755371,0.026462078094482422,37.789927020452296,36.21057531011283,-131.0,68.0,66.0,1658,1645.3478214233864,1118.5752553000184,
93,2.5673060417175293,0.026611804962158203,37.577308319446686,36.22474239097063,-154.0,-3.0,53.0,1687,1666.1739107116932,950.5818167875241,
94,2.5959582328796387,0.028652191162109375,34.90134469444814,36.210135744644816,31.0,16.0,125.0,,1666.1739107116932,950.5818167875241,
95,2.6168110370635986,0.02085280418395996,47.955181047986,36.303729483884446,121.0,-14.0,144.0,1663,1664.5869553558466,437.2395426914144,
96,2.6435301303863525,0.026719093322753906,37.426419673769495,36.31507691042265,-80.0,-29.0,2.0,1630,1647.2934776779234,-104.99670525075192,
97,2.670955181121826,0.027425050735473633,36.46301367481244,36.316595907558096,-53.0,45.0,7.0,1602,1624.6467388389617,-465.38252661285935,
98,2.6993820667266846,0.0284268856048584,35.177965462002334,36.30460511980671,31.0,49.0,113.0,1597,1610.823369419481,-475.83026930992605,
99,2.7262589931488037,0.02687692642211914,37.20663532333895,36.313497818362414,6.0,49.0,58.0,1588,1599.4116847097405,-450.2103303650817,
100,2.7552640438079834,0.029005050659179688,34.47675412638916,36.294162160150876,-54.0,-36.0,-35.0,1579,1589.2058423548701,-401.0373239433178,
101,2.781292200088501,0.026028156280517578,38.419932215810206,36.314055746025595,30.0,-37.0,33.0,1602,1595.602921177435,-77.630994600589,
102,2.8085131645202637,0.027220964431762695,36.73639126588598,36.31814915043246,28.0,-104.0,25.0,1607,1601.3014605887174,65.85638942817556,
103,2.8351800441741943,0.026666879653930664,37.4997004890522,36.32926247899044,40.0,-18.0,35.0,1597,1599.1507302943587,-7.397676221503559,
104,2.8626019954681396,0.027421951293945312,36.467135007303334,36.330583212282086,-9.0,124.0,59.0,1579,1589.0753651471794,-187.40868864578584,
105,2.889409065246582,0.026807069778442383,37.30359223387319,36.33961049784389,-6.0,68.0,34.0,1555,1572.0376825735898,-411.48772599056906,
106,2.9165780544281006,0.027168989181518555,36.806669299284806,36.34396132106435,8.0,-68.0,4.0,1546,1559.018841286795,-445.3339559467521,
107,2.942923069000244,0.026345014572143555,37.95784577235993,36.35840879671704,24.0,-84.0,-8.0,1555,1557.0094206433973,-260.8036174103165,
108,2.9688589572906494,0.025935888290405273,38.55661270602943,36.377612259007314,40.0,-2.0,48.0,1555,1556.0047103216987,-149.77092208290114,
109,2.995826005935669,0.02696704864501953,37.08229302967076,36.38395547139149,14.0,66.0,36.0,1597,1576.5023551608492,305.16437513029905,
110,3.0225460529327393,0.026720046997070312,37.42508387465201,36.39315930133417,79.0,121.0,101.0,1574,1575.2511775804246,129.16947462041193,
111,3.053279161453247,0.030733108520507812,32.538198969775955,36.3543567851058,24.0,-112.0,-61.0,1574,1574.6255887902123,54.406971045611265,
112,3.0825722217559814,0.029293060302734375,34.137778356556844,36.333293088652894,5.0,-54.0,-52.0,1541,1557.8127943951063,-259.77223878443993,
113,3.1101510524749756,0.02757883071899414,36.25969535072704,36.33264047097571,122.0,337.0,236.0,1579,1568.4063971975531,62.17428574944586,
114,3.1364541053771973,0.02630305290222168,38.01840051485184,36.3467776571499,-26.0,31.0,-19.0,1593,1580.7031985987765,264.8395032363727,
115,3.1618309020996094,0.02537679672241211,39.40607677709089,36.3713315356727,-57.0,-1.0,-26.0,1597,1588.8515992993882,292.9680034275907,
116,3.189908027648926,0.028077125549316406,35.61618151557352,36.364684810519776,-59.0,-17.0,47.0,1579,1583.925799649694,58.764914497366334,
117,3.216644287109375,0.02673625946044922,37.4023898698056,36.37331005758849,-74.0,-97.0,25.0,1583,1583.462899824847,20.725677388887064,
118,3.2423629760742188,0.02571868896484375,38.88223079204984,36.393211022558546,-19.0,-32.0,41.0,1593,1588.2314499124236,103.06877121874521,
119,3.269909143447876,0.027546167373657227,36.30269091286774,36.39244846862117,35.0,23.0,71.0,1579,1583.6157249562118,-32.247232602710994,
120,3.2948031425476074,0.024893999099731445,40.17032361870648,36.42099233498169,12.0,-5.0,10.0,1602,1592.807862478106,168.50195319971704,
121,3.322322130203247,0.02751898765563965,36.338546043682804,36.42030942755021,15.0,-25.0,-15.0,1602,1597.403931239053,167.75820474466073,
122,3.350234031677246,0.027911901473999023,35.827010959161534,36.415366462898255,28.0,39.0,33.0,1597,1597.2019656195266,80.26119014025744,
123,3.3765830993652344,0.02634906768798828,37.95200694922002,36.42735759209446,-12.0,21.0,29.0,1583,1590.1009828097633,-94.61767940108578,
124,3.402529239654541,0.02594614028930664,38.54137797952695,36.44347814997462,-1.0,14.0,51.0,1593,1591.5504914048815,-19.375810376030458,
125,3.4312140941619873,0.02868485450744629,34.861602653079885,36.430253714765364,-8.0,-47.0,11.0,1574,1582.7752457024408,-162.64746961883372,
126,3.4569480419158936,0.02573394775390625,38.85917580788615,36.448334910515136,-18.0,-47.0,-8.0,1583,1582.8876228512204,-79.14029311880884,
127,3.4833669662475586,0.02641892433166504,37.8516546489906,36.4589781181769,-40.0,21.0,25.0,1574,1578.4438114256102,-123.67295426312224,
128,3.509986162185669,0.02661919593811035,37.56687475929028,36.46738023613585,-4.0,44.0,40.0,1560,1569.221905712805,-235.05556560902954,
129,3.5357720851898193,0.02578592300415039,38.780849529374784,36.48425206487103,28.0,43.0,-11.0,1574,1571.6109528564025,-71.20314390729597,
130,3.5631351470947266,0.027363061904907227,36.54561771907048,36.48472332181902,4.0,29.0,-45.0,1588,1579.8054764282012,114.13539096878665,
131,3.5922861099243164,0.029150962829589844,34.30418425098963,36.46702851370598,-49.0,40.0,-7.0,,1579.8054764282012,114.13539096878665,
132,3.6181650161743164,0.02587890625,38.64150943396226,36.48258147705237,-18.0,42.0,25.0,1597,1588.4027382141007,223.17328168743256,
133,3.646627187728882,0.02846217155456543,35.134353613282066,36.472058467493724,31.0,42.0,22.0,1593,1590.7013691070504,151.96709615336962,
134,3.672762870788574,0.026135683059692383,38.261865883361764,36.48479488446501,28.0,26.0,18.0,1569,1579.8506845535253,-131.60017048813586,
135,3.700266122817993,0.027503252029418945,36.35933666790918,36.48386238154912,-14.0,-37.0,18.0,1602,1590.9253422767626,135.5335190764558,
136,3.7273752689361572,0.027109146118164062,36.88791951030746,36.48680108316977,12.0,26.0,52.0,1555,1572.9626711383812,-263.5360240331408,
137,3.75469708442688,0.027321815490722656,36.60078885824985,36.487630538353216,4.0,35.0,54.0,1602,1587.4813355691906,133.92927365134804,
138,3.781630039215088,0.026932954788208008,37.12923471871819,36.4922000748236,-22.0,24.0,32.0,1602,1594.7406677845952,201.73136168912868,
139,3.8099820613861084,0.028352022171020508,35.27085277966985,36.483111405892146,-13.0,17.0,-10.0,1612,1603.3703338922976,253.0535222558034,
140,3.8374359607696533,0.027453899383544922,36.42469821971342,36.48269350452456,-21.0,-33.0,-30.0,1607,1605.185166946149,159.57913428074926,
141,3.868082046508789,0.030646085739135742,32.63059460552828,36.452174050253724,-9.0,-35.0,-27.0,1574,1589.5925834730745,-174.60806794100176,
142,3.895838975906372,0.027756929397583008,36.027039795225946,36.44914506944259,34.0,6.0,-13.0,1555,1572.2962917365371,-398.87112932153514,
