Index,Time,Difference,Hz,AveHz,0x6103 Heading,0x6103 Roll,0x6103 Pitch,0x6103 Measured-X,0x6103 Measured-Y,0x6103 Measured-Z,0x6103 Smoothed-X,0x6103 Smoothed-Y,0x6103 Smoothed-Z,0x6103 Velocity-X,0x6103 Velocity-Y,0x6103 Velocity-Z,
0,0.0,0.0,0,0,166.3125,2.375,173.0,1808,5457,2062,2238.4,5305.800000000001,412.40000000000003,,,,
1,0.09099984169006348,0.09099984169006348,10.989030106292951,10.989030106292951,166.3125,2.375,173.0,1806,5468,1945,2151.92,5338.240000000002,718.9200000000001,-73.17551191660053,27.449278521907466,259.3635281299305,
2,0.18400001525878906,0.09300017356872559,10.752668104011834,10.869564315997886,166.3125,2.375,173.0,1777,5476,1981,2076.936,5365.792000000001,971.3360000000001,-129.62440851258643,48.14751246905385,448.38173781887923,
3,0.27699995040893555,0.09299993515014648,10.752695670007947,10.830326848691108,166.3125,2.375,173.0,2348,5253,598,2131.1488000000004,5343.233600000001,896.6688000000001,-74.75743109105355,25.76275603875914,352.03507079069107,
4,0.36999988555908203,0.09299993515014648,10.752695670007947,10.810814154593231,166.3125,2.375,173.0,1627,5540,2175,2030.3190400000005,5382.586880000002,1152.3350400000002,-152.48387162655774,56.361869769933904,536.6091682695793,
5,0.46399998664855957,0.09400010108947754,10.63828643171471,10.775862379037251,166.3125,2.375,173.0,2361,5250,516,2096.4552320000003,5356.069504000002,1025.0680320000001,-86.56728045339938,30.300348817127418,391.03974021314946,
6,0.5600001811981201,0.09600019454956055,10.416645556731089,10.714282247486068,166.3125,2.375,173.0,1831,5459,2051,2043.3641856000004,5376.655603200002,1230.2544256,-122.48495702751435,44.478955562890576,525.5059332267609,
7,0.6509997844696045,0.09099960327148438,10.989058897505764,10.75269173199985,166.3125,2.375,173.0,1636,5560,2192,1961.8913484800005,5413.324482560001,1422.6035404800002,-181.99247037210586,72.08172455897588,647.799629295356,
8,0.749000072479248,0.09800028800964355,10.20405164423187,10.680906843599336,166.3125,2.375,173.0,1643,5575,2198,1898.1130787840007,5445.659586048001,1577.6828323840004,-218.09040050079898,91.93750984324583,719.7667148121418,
9,0.8489999771118164,0.09999990463256836,10.000009536752259,10.600706999565286,166.3125,2.375,173.0,2356,5212,559,1989.6904630272006,5398.927668838402,1373.9462659072003,-130.78278654695993,48.87471101727909,507.46737197461346,
10,0.9429998397827148,0.09399986267089844,10.638313414361951,10.604455672340507,166.3125,2.375,173.0,2340,5253,604,2059.7523704217606,5369.742135070722,1219.9570127257603,-63.32129122895146,21.204024404224956,342.25206712291595,
11,1.0240001678466797,0.08100032806396484,12.345629010419733,10.742185739218545,166.3125,2.375,173.0,1663,5533,2254,1980.4018963374087,5402.393708056578,1426.7656101806083,-133.87717844748985,50.61033844023177,512.4936889208461,
12,1.125,0.10099983215332031,9.901006552980945,10.666666666666666,166.3125,2.375,173.0,2398,5235,537,2063.921517069927,5368.9149664452625,1248.8124881444867,-59.895155669546725,21.18990289423598,337.3642177639055,
13,1.2179999351501465,0.09299993515014648,10.752695670007947,10.673235379439861,166.3125,2.375,173.0,1671,5584,2173,1985.337213655942,5411.93197315621,1433.6499905155893,-120.34769730985317,55.17453656978792,464.4247816739494,
14,1.309999942779541,0.09200000762939453,10.869564315997886,10.687023367569758,166.3125,2.375,173.0,1642,5546,2121,1916.6697709247537,5438.745578524968,1571.1199924124714,-168.55258387598937,73.36791727757554,543.7204785747208,
15,1.4099998474121094,0.09999990463256836,10.000009536752259,10.638299023599721,166.3125,2.375,173.0,1637,5538,2205,1860.735816739803,5458.5964628199745,1697.8959939299773,-198.6432207139265,83.00378313145585,599.4716159883584,
16,1.500999927520752,0.09100008010864258,10.989001315231004,10.659560807859394,166.3125,2.375,173.0,1687,5574,2202,1825.9886533918427,5481.67717025598,1798.716795143982,-212.749112746263,96.14230400687967,638.6221351772921,
17,1.5909998416900635,0.08999991416931152,11.11112170750251,10.685104771563958,166.3125,2.375,173.0,1762,5594,2338,1813.1909227134743,5504.141736204784,1906.5734361151858,-207.31661108713442,107.95904912833021,681.7256671577361,
18,1.680999994277954,0.09000015258789062,11.111092273131861,10.707911993617587,166.3125,2.375,173.0,1598,5531,2152,1770.1527381707797,5509.513388963827,1955.6587488921489,-228.17472749201576,104.24194191425009,671.2279316296593,
19,1.7810001373291016,0.10000014305114746,9.999985694905718,10.66816313023624,166.3125,2.375,173.0,1612,5506,2174,1738.5221905366238,5508.8107111710615,1999.3269991137192,-234.96076031262717,95.67425126041731,653.1678854645452,
20,1.872999906539917,0.09199976921081543,10.869592484612893,10.678057126520077,166.3125,2.375,173.0,1866,5473,2035,1764.0177524292992,5501.64856893685,2006.4615992909755,-195.53005143720515,82.31291722335631,608.8453234117668,
21,1.9609999656677246,0.08800005912780762,11.363628728335758,10.708822217061822,166.3125,2.375,173.0,1646,5548,2210,1740.4142019434396,5510.918855149481,2047.1692794327805,-201.12733027471188,84.08631758304026,597.5834297003563,
22,2.0490000247955322,0.08800005912780762,11.363628728335758,10.736944721216076,166.3125,2.375,173.0,2377,5217,562,1867.7313615547519,5452.135084119585,1750.1354235462245,-74.23808603572935,26.175906038033375,291.6650563442864,
23,2.13700008392334,0.08800005912780762,11.363628728335758,10.762751098153478,166.3125,2.375,173.0,1605,5532,2153,1815.1850892438015,5468.108067295669,1830.7083388369797,-114.49971079015273,38.136712161371015,339.7081005149082,
24,2.2260000705718994,0.08899998664855957,11.235956741755135,10.781670817213392,166.3125,2.375,173.0,1617,5550,2078,1775.5480713950415,5484.4864538365355,1880.166671069584,-139.97593903921594,49.370252210760604,356.3403762495973,
25,2.315999984741211,0.08999991416931152,11.11112170750251,10.794473300824952,166.3125,2.375,173.0,1651,5559,2138,1750.6384571160334,5499.389163069229,1931.7333368556674,-150.50937094065344,58.31885062684221,373.0203567475227,
26,2.3980000019073486,0.0820000171661377,12.195119398254892,10.842368631909851,166.3125,2.375,173.0,1636,5513,2192,1727.7107656928267,5502.111330455384,1983.786669484534,-160.44980632951405,56.38448016338241,393.17712797739364,
27,2.4800000190734863,0.0820000171661377,12.195119398254892,10.887096690461737,166.3125,2.375,173.0,1621,5572,2200,1706.3686125542615,5516.089064364307,2027.0293355876274,-168.135969384171,65.16830550390132,403.5083987925435,
28,2.577000141143799,0.0970001220703125,10.309265376750039,10.865346707964179,166.3125,2.375,173.0,2446,5205,477,1854.2948900434094,5453.871251491446,1717.0234684701022,-37.76363342764975,10.76101028691889,126.35143014578381,
29,2.6720001697540283,0.09500002861022949,10.526312619366108,10.853292723656377,166.3125,2.375,173.0,1614,5538,2150,1806.2359120347276,5470.697001193157,1803.6187747760819,-73.80888830859092,23.57012130381331,186.8101234716395,
30,2.7680001258850098,0.09599995613098145,10.416671426762,10.838149796112502,166.3125,2.375,173.0,2343,5258,615,1913.588729627782,5428.157600954526,1565.8950198208656,17.98034121667571,-12.364937569835554,-18.248604954928794,
31,2.8580000400543213,0.08999991416931152,11.11112170750251,10.846745824192078,166.3125,2.375,173.0,1649,5562,2171,1860.6709837022256,5454.926080763622,1686.9160158566926,-28.678259747855794,11.489106078485745,86.69682186762918,
32,2.944000005722046,0.08599996566772461,11.627911618751906,10.869565196264894,166.3125,2.375,173.0,1778,5462,1959,1844.1367869617807,5456.340864610898,1741.3328126853542,-41.27391348291202,11.871170488696407,128.74320179946437,
33,3.0329999923706055,0.08899998664855957,11.235956741755135,10.88031654566773,166.3125,2.375,173.0,1826,5479,2034,1840.5094295694246,5460.872691688719,1799.8662501482834,-41.2340981122775,14.877885162644905,169.4712714494427,
34,3.124000072479248,0.09100008010864258,10.989001315231004,10.883482461963307,166.3125,2.375,173.0,1669,5566,2194,1806.2075436555397,5481.898153350975,1878.6930001186267,-67.0837197031712,31.52304759633127,223.12148249849628,
35,3.2109999656677246,0.08699989318847656,11.494266985289281,10.90003125949015,166.3125,2.375,173.0,2262,5251,574,1897.366034924432,5435.71852268078,1617.7544000949015,18.7623295337753,-11.775904392392707,-25.004812682791794,
36,3.3010001182556152,0.09000015258789062,11.111092273131861,10.905785734725718,166.3125,2.375,173.0,1596,5518,2159,1837.0928279395457,5452.174818144625,1726.0035200759212,-34.249359499637166,3.210091383519652,69.53353685955442,
37,3.392000198364258,0.09100008010864258,10.989001315231004,10.908018230023307,166.3125,2.375,173.0,2410,5289,500,1951.6742623516366,5419.5398545157,1480.802816060737,65.34127725791004,-24.651261337550185,-143.2978816153501,
38,3.4819998741149902,0.08999967575073242,11.111151142029108,10.913268631193834,166.3125,2.375,173.0,1724,5505,1903,1906.1394098813093,5436.63188361256,1565.24225284859,21.35226255091012,-8.129881080882903,-60.021055204649414,
39,3.5739998817443848,0.09200000762939453,10.869564315997886,10.912143617913335,166.3125,2.375,173.0,1657,5532,2227,1856.3115279050476,5455.705506890048,1697.593802278872,-21.99562899157151,8.459911833785359,55.37304931789932,
40,3.6640000343322754,0.09000015258789062,11.111092273131861,10.91703046539124,166.3125,2.375,173.0,2368,5240,535,1958.649222324038,5412.564405512038,1465.0750418230978,67.25346900037047,-29.101047756937543,-147.82305548427206,
41,3.760999917984009,0.0969998836517334,10.309290716166029,10.901356260059968,166.3125,2.375,173.0,2425,5255,539,2051.9193778592307,5381.0515244096305,1279.8600334584783,136.11423632602492,-51.875676928983026,-283.467203411538,
42,3.8580000400543213,0.0970001220703125,10.309265376750039,10.886469560380988,166.3125,2.375,173.0,2395,5243,512,2120.5355022873846,5353.441219527705,1126.2880267667827,180.1018414896743,-69.79868073782919,-383.5477507485532,
43,3.949000120162964,0.09100008010864258,10.989001315231004,10.888832284519028,166.3125,2.375,173.0,1835,5474,2098,2063.4284018299077,5377.552975622164,1320.6304214134261,117.91264953817871,-44.02194512455645,-189.5711540018773,
44,4.042999982833862,0.09399986267089844,10.638313414361951,10.88300771378165,166.3125,2.375,173.0,2454,5243,483,2141.5427214639262,5350.642380497732,1153.1043371307408,172.8207308337969,-62.67607292272005,-312.2031893490945,
45,4.13700008392334,0.09400010108947754,10.63828643171471,10.877447205010467,166.3125,2.375,173.0,2418,5234,521,2196.834177171141,5327.313904398186,1026.6834697045927,204.80542297366065,-76.95949113637371,-391.7209514633543,
46,4.229000091552734,0.09200000762939453,10.869564315997886,10.877275716281785,166.3125,2.375,173.0,2373,5255,608,2232.067341736913,5312.85112351855,942.9467757636742,218.524029824081,-83.13832809474644,-431.64240449146405,
47,4.322000026702881,0.09299993515014648,10.752695670007947,10.874595027676303,166.3125,2.375,173.0,2422,5230,496,2270.0538733895305,5296.28089881484,853.5574206109394,233.1489158379452,-90.45611975499413,-472.4165323169836,
48,4.414000034332275,0.09200000762939453,10.869564315997886,10.874490173686906,166.3125,2.375,173.0,2453,5220,492,2306.6430987116246,5281.024719051872,781.2459364887516,245.8200375375735,-96.2597566244099,-496.56202254233216,
49,4.504000186920166,0.09000015258789062,11.111092273131861,10.879218020971306,166.3125,2.375,173.0,2408,5208,495,2326.9144789692996,5266.419775241498,723.9967491910013,244.23515724128166,-101.34307499504489,-507.3065240088602,
50,4.593999862670898,0.08999967575073242,11.111151142029108,10.883761753299352,166.3125,2.375,173.0,2302,5279,567,2321.9315831754398,5268.935820193199,692.5973993528011,221.16589059533004,-91.38703422856304,-495.1079066398321,
51,4.681999921798706,0.08800005912780762,11.363628728335758,10.892781044816227,166.3125,2.375,173.0,2387,5257,469,2334.945266540352,5266.54865615456,647.8779194822409,215.52308231280716,-86.43899972331552,-496.1141164239114,
52,4.769000053405762,0.08700013160705566,11.494235485948398,10.903753285316995,166.3125,2.375,173.0,1986,5310,841,2265.1562132322815,5275.2389249236485,686.5023355857928,137.16057536876477,-72.09182107817794,-423.7285531257561,
53,4.861000061035156,0.09200000762939453,10.869564315997886,10.903106219816335,166.3125,2.375,173.0,2316,5281,628,2275.324970585825,5276.391139938919,674.8018684686343,135.1100181446151,-65.57639706365399,-400.8942359840752,
54,4.949000120162964,0.08800005912780762,11.363628728335758,10.911294946224785,166.3125,2.375,173.0,1606,5542,2150,2141.45997646866,5329.512911951135,969.8414947749075,7.5747555966194255,-14.045495210317512,-111.8658802544627,
55,5.04200005531311,0.09299993515014648,10.752695670007947,10.908369574895707,166.3125,2.375,173.0,1817,5442,2034,2076.5679811749283,5352.010329560908,1182.673195819926,-46.73631909892782,5.662915059637401,72.963409815705,
56,5.134999990463257,0.09299993515014648,10.752695670007947,10.905550166310308,166.3125,2.375,173.0,1682,5546,2203,1997.6543849399427,5390.808263648726,1386.7385566559408,-108.47473163794311,37.34991369613827,236.30268684311773,
57,5.228000164031982,0.09300017356872559,10.752668104011834,10.902830568398448,166.3125,2.375,173.0,1831,5443,2038,1964.3235079519543,5401.246610918982,1516.9908453247526,-127.71865835761784,43.11645679039938,325.95047145416066,
58,5.322000026702881,0.09399986267089844,10.638313414361951,10.89815853231638,166.3125,2.375,173.0,1633,5548,2173,1898.0588063615637,5430.597288735186,1648.1926762598023,-172.16506077881755,63.83910125155997,408.32628240012974,
59,5.41700005531311,0.09500002861022949,10.526312619366108,10.891637326481385,166.3125,2.375,173.0,1815,5465,1985,1881.447045089251,5437.477830988149,1715.554141007842,-172.37261670676799,64.50034933858927,431.48338206091296,
60,5.513000011444092,0.09599995613098145,10.416671426762,10.883366565472475,166.3125,2.375,173.0,1682,5540,2256,1841.557636071401,5457.982264790519,1823.6433128062738,-191.09456999063977,75.98009456727105,484.95572447318494,
61,5.609999895095825,0.0969998836517334,10.309290716166029,10.873440488532852,166.3125,2.375,173.0,1665,5556,2161,1806.2461088571208,5477.585811832416,1891.1146502450192,-204.41112167701488,85.69122453085814,501.17391940392116,
62,5.697000026702881,0.08700013160705566,11.494235485948398,10.88292078451723,166.3125,2.375,173.0,2445,5238,491,1933.9968870856967,5429.668649465933,1611.0917201960156,-75.60485561550834,36.6836218414565,214.74751615228448,
63,5.781000137329102,0.0840001106262207,11.904746226463292,10.897768293274394,166.3125,2.375,173.0,1819,5510,2016,1910.9975096685573,5445.734919572747,1692.0733761568126,-90.86601659997673,48.586377828575976,272.44504427588623,
64,5.864000082015991,0.08299994468688965,12.048200800282656,10.914051689098436,166.3125,2.375,173.0,1849,5497,2082,1898.5980077348459,5455.987935658197,1770.0587009254502,-95.37249338408388,54.35706727444021,323.8146554928038,
65,5.953999996185303,0.08999991416931152,11.11112170750251,10.917030574680075,166.3125,2.375,173.0,2205,5239,657,1959.8784061878769,5412.590348526558,1547.4469607403603,-35.599976050326966,13.042490917076364,108.42403433876737,
66,6.044000148773193,0.09000015258789062,11.111092273131861,10.919920313601684,166.3125,2.375,173.0,1823,5485,2042,1932.5027249503014,5427.072278821247,1646.3575685922883,-56.2801543552838,24.42829402885762,184.69876027352592,
67,6.134999990463257,0.09099984169006348,10.989030106292951,10.920945412249429,166.3125,2.375,173.0,1799,5501,2024,1905.8021799602411,5441.857823056997,1721.8860548738307,-74.5393906116925,35.05818227596883,234.38578607402093,
68,6.2209999561309814,0.08599996566772461,11.627911618751906,10.930718611078587,166.3125,2.375,173.0,1739,5563,2312,1872.441743968193,5466.086258445598,1839.9088438990648,-98.66909703304182,54.051612353384556,322.00968964969115,
69,6.308000087738037,0.08700013160705566,11.494235485948398,10.93849065318299,166.3125,2.375,173.0,1822,5449,1759,1862.3533951745544,5462.669006756479,1823.7270751192518,-100.00033152727936,46.86517863870293,282.8931698547209,
70,6.390999794006348,0.08299970626831055,12.048235409018574,10.95290287219973,166.3125,2.375,173.0,1594,5523,2174,1808.6827161396436,5474.7352054051835,1893.7816600954015,-142.09135311891404,54.45054282301426,326.101023883986,
71,6.485000133514404,0.09400033950805664,10.638259449204345,10.948342103043736,166.3125,2.375,173.0,1735,5456,1801,1793.946172911715,5470.988164324147,1875.2253280763214,-143.22169903747795,47.18847739625136,285.7909003126885,
72,6.578999996185303,0.09399986267089844,10.638313414361951,10.943912455046013,166.3125,2.375,173.0,2385,5217,546,1912.156938329372,5420.190531459319,1609.3802624610573,-35.361264008813734,1.944076924212304,46.01798015749819,
73,6.671000003814697,0.09200000762939453,10.869564315997886,10.942887117112306,166.3125,2.375,173.0,1629,5540,2116,1855.5255506634976,5444.1524251674555,1710.704209968846,-80.03645199159428,21.849444550162715,127.27832732774696,
74,6.761999845504761,0.09099984169006348,10.989030106292951,10.943508087950296,166.3125,2.375,173.0,1852,5432,2053,1854.8204405307984,5441.721940133964,1779.163367975077,-74.47027787693081,18.110469482943724,175.40497674891978,
75,6.852999925613403,0.09100008010864258,10.989001315231004,10.94411218650157,166.3125,2.375,173.0,2429,5237,517,1969.6563524246387,5400.777552107173,1526.7306943800618,28.43269650605444,-17.929257575829187,-51.69789608575047,
76,6.94599986076355,0.09299993515014648,10.752695670007947,10.941549312332635,166.3125,2.375,173.0,2443,5239,448,2064.3250819397113,5368.422041685739,1310.9845555040495,104.62506979661255,-43.337694416817854,-226.34580623225105,
77,7.0400002002716064,0.09400033950805664,10.638259449204345,10.937499688853602,166.3125,2.375,172.9375,1762,5502,2379,2003.8600655517691,5395.137633348591,1524.5876444032397,47.039264463253694,-18.11672249719404,-33.945068080067216,
78,7.138000011444092,0.09799981117248535,10.204101294031496,10.927430635324388,166.3125,2.375,172.9375,1725,5524,2232,1948.0880524414154,5420.9101066788735,1666.0701155225918,-0.40371077897474095,3.5281046265040175,79.83371509274306,
79,7.229000091552734,0.09100008010864258,10.989001315231004,10.928205699196692,166.3125,2.375,172.9375,1731,5491,2250,1904.6704419531325,5434.928085343099,1782.8560924180736,-37.11057081350815,15.11779669057352,172.50533556588584,
80,7.320000171661377,0.09100008010864258,10.989001315231004,10.928961492338718,166.3125,2.3125,172.9375,2440,5204,476,2011.736353562506,5388.7424682744795,1521.484873934459,56.3410962880016,-25.126376771410534,-61.937642376045005,
81,7.408999919891357,0.08899974822998047,11.235986841400297,10.93264959856927,166.3125,2.375,172.9375,2456,5161,396,2100.589082850005,5343.193974619584,1296.3878991475674,128.87563535028224,-62.59888096211679,-251.9158157124183,
82,7.498999834060669,0.08999991416931152,11.11112170750251,10.934791547474596,166.3125,2.3125,172.9375,2282,5198,525,2136.871266280004,5314.155179695667,1142.110319318054,149.99366463296843,-82.62309314522474,-364.51146430186066,
83,7.5899999141693115,0.09100008010864258,10.989001315231004,10.935441493886229,166.3125,2.375,172.9375,2424,5176,471,2194.2970130240033,5286.524143756534,1007.8882554544433,187.03512615657053,-99.64120172432023,-450.01649714804574,
84,7.680999994277954,0.09100008010864258,10.989001315231004,10.936076039913647,166.4375,5.6875,174.75,2493,5149,313,2254.037610419203,5259.019315005227,868.9106043635547,223.1831132003517,-115.24212533944238,-532.961597345809,
85,7.769000053405762,0.08800005912780762,11.363628728335758,10.940918961988917,164.5625,8.0625,176.375,1593,5488,2244,2121.8300883353622,5304.815452004183,1143.9284834908437,90.31650938776549,-66.29688873859945,-251.2830718018056,
86,7.858000040054321,0.08899998664855957,11.235956741755135,10.944260570327701,165.25,4.625,173.875,1729,5392,1946,2043.2640706682898,5322.252361603347,1304.342786792675,15.389281222209505,-46.10616043433729,-93.1488459783879,
