Index,Time,Difference,Hz,AveHz,0x6103 Heading,0x6103 Roll,0x6103 Pitch,0x6103 Measured-X,0x6103 Measured-Y,0x6103 Measured-Z,0x6103 Smoothed-X,0x6103 Smoothed-Y,0x6103 Smoothed-Z,0x6103 Velocity-X,0x6103 Velocity-Y,0x6103 Velocity-Z,
0,0.0,0.0,0,0,245.75,-7.375,10.9375,1926,4890,1691,1833.2,4835.6,338.20000000000005,,,,
1,0.0820002555847168,0.0820002555847168,12.195083940523473,12.195083940523473,245.75,-7.375,10.9375,1940,4877,1778,1854.5600000000002,4843.880000000001,626.1600000000001,20.057498458657882,7.775097717120761,270.4006206065117,
2,0.16700005531311035,0.08499979972839355,11.76473360167174,11.976043937531498,245.75,-7.375,10.9375,1918,4849,1746,1867.248,4844.904000000001,850.1280000000002,30.006933452567964,8.104040907927386,452.46890967785004,
3,0.2650003433227539,0.09800028800964355,10.20405164423187,11.320740050310754,245.75,-7.375,10.9375,1924,4902,1702,1878.5984,4856.323200000001,1020.5024000000003,36.61454479598734,16.452231961274045,551.4940102196921,
4,0.3560001850128174,0.09099984169006348,10.989030106292951,11.235949216869043,245.75,-7.375,10.9375,1921,4900,1674,1887.0787200000002,4865.058560000001,1151.2019200000002,40.97089271460329,22.57688142051309,619.6210653649446,
5,0.4530003070831299,0.0970001220703125,10.309265376750039,11.037520111619818,245.75,-7.375,10.9375,1921,4872,1687,1893.8629760000003,4866.446848000001,1258.3615360000003,43.20156752814022,21.940503215808196,656.9749860959704,
6,0.5520000457763672,0.0989997386932373,10.101036762315315,10.869564315997886,245.75,-7.375,10.9375,1865,4795,1374,1888.0903808000003,4852.157478400001,1281.4892288000003,35.38523871112767,9.13710099991775,624.3761651570065,
7,0.6550002098083496,0.10300016403198242,9.708722402514733,10.687019477517682,245.75,-7.375,10.9375,1934,4911,1680,1897.2723046400004,4863.925982720001,1361.1913830400003,39.52472105600749,17.23134412117103,635.8822694006071,
8,0.752000093460083,0.0969998836517334,10.309290716166029,10.638296550191384,245.75,-7.375,10.9375,1963,4898,1769,1910.4178437120004,4870.740786176001,1442.7531064320003,46.91644869607042,21.314226453951456,651.6642855242532,
9,0.8460001945495605,0.09400010108947754,10.63828643171471,10.638295425915247,245.75,-7.375,10.9375,1935,4883,1631,1915.3342749696003,4873.192628940801,1480.4024851456004,47.33116724986712,21.68145324954232,632.326550893202,
10,0.9380002021789551,0.09200000762939453,10.869564315997886,10.660978512339558,245.75,-7.375,10.9375,1919,4907,1677,1916.0674199756802,4879.9541031526405,1519.7219881164804,44.300277814960786,25.67104081820188,616.5461181883843,
11,1.0210003852844238,0.08300018310546875,12.048166191745565,10.77374715871012,245.75,-7.375,10.9375,1910,4921,1694,1914.8539359805443,4888.163282522112,1554.5775904931843,39.76339664618841,31.310098590476144,601.4079160292694,
12,1.1180002689361572,0.0969998836517334,10.309290716166029,10.73345001197424,245.75,-7.375,10.9375,1918,4889,1680,1915.4831487844353,4888.33062601769,1579.6620723945475,37.201093908690716,29.032060840402707,575.0119541567036,
13,1.2050001621246338,0.08699989318847656,11.494266985289281,10.788380291234686,245.75,-7.375,10.9375,1889,4908,1657,1910.1865190275482,4892.264500814152,1595.1296579156383,29.64878218353413,30.278301709878843,544.4257526216228,
14,1.2990000247955322,0.09399986267089844,10.638313414361951,10.777520964407723,245.75,-7.375,10.9375,1918,4898,1660,1911.7492152220389,4893.411600651321,1608.1037263325106,28.6459087508105,28.886519462292004,513.1326795377687,
15,1.3910000324249268,0.09200000762939453,10.869564315997886,10.783608663078562,245.75,-7.375,10.9375,1968,4879,1810,1922.9993721776314,4890.529280521057,1648.4829810660085,35.85606523072713,24.249881032985204,507.41714100291244,
16,1.4850003719329834,0.09400033950805664,10.638259449204345,10.774408075853374,245.75,-7.375,10.9375,1904,4909,1635,1919.1994977421052,4894.223424416846,1645.7863848528068,29.98249634875765,25.40868330631433,466.13711520446304,
17,1.5880000591278076,0.10299968719482422,9.708767349055119,10.705289273941887,245.75,-7.375,10.9375,1923,4906,1677,1919.959598193684,4896.578739533476,1652.0291078822456,28.242076290267715,25.212989592311267,434.91146153856,
18,1.6820001602172852,0.09400010108947754,10.63828643171471,10.701544759469412,245.75,-7.375,10.9375,1898,4899,1623,1915.5676785549472,4897.062991626782,1646.2232863057966,22.46980398506647,23.668263554181188,396.6674515466604,
19,1.7790000438690186,0.0969998836517334,10.309290716166029,10.6801571284272,245.75,-7.4375,10.9375,1915,4894,1612,1915.454142843958,4896.450393301426,1639.3786290446374,20.64950268406973,21.359517284927733,360.6906635376164,
20,1.878000259399414,0.09900021553039551,10.100988110404419,10.649625792062466,245.75,-7.4375,10.9375,1890,4895,1665,1910.3633142751664,4896.160314641141,1644.50290323571,15.09996626629517,19.489218209394526,336.9030203614626,
21,1.9690003395080566,0.09100008010864258,10.989001315231004,10.665310502306326,245.75,-7.4375,10.9375,1954,4893,1798,1919.090651420133,4895.528251712913,1675.2023225885682,21.32193225485718,17.45372640035134,336.93789668632485,
22,2.061000347137451,0.09200000762939453,10.869564315997886,10.67442809049308,245.8125,-7.375,10.9375,1931,4900,1688,1921.4725211361067,4896.42260137033,1677.7618580708545,21.67366469863109,16.858321183940614,313.1358983783496,
23,2.1560001373291016,0.09499979019165039,10.526339036987586,10.667902845541041,245.8125,-7.375,10.9375,1906,4909,1655,1918.3780169088855,4898.938081096264,1673.2094864566836,17.49660986700809,17.59909747033747,285.3346090616664,
24,2.247000217437744,0.09100008010864258,10.989001315231004,10.680906843599336,245.6875,-7.4375,10.9375,1890,4914,1661,1912.7024135271085,4901.950464877012,1670.767589165347,11.346941504163617,18.792904843425053,261.2976251978641,
25,2.3410003185272217,0.09400010108947754,10.63828643171471,10.679195471330857,245.6875,-7.4375,10.9375,1904,4915,1694,1910.9619308216868,4904.560371901609,1675.4140713322777,9.047513985014396,19.483751434042727,244.98386488838653,
26,2.434000253677368,0.09299993515014648,10.752695670007947,10.682003816851843,245.6875,-7.4375,10.9375,1863,4916,1576,1901.3695446573497,4906.848297521287,1655.5312570658223,0.40876670174630103,19.877807902230675,209.65798077495327,
27,2.5250003337860107,0.09100008010864258,10.989001315231004,10.693067893387536,245.625,-7.4375,10.9375,1899,4915,1653,1900.8956357258799,4908.47863801703,1655.025005652658,-0.023707846372250874,19.72673436036207,193.0859500520091,
28,2.6170003414154053,0.09200000762939453,10.869564315997886,10.699272582003635,245.625,-7.4375,10.9375,1891,4892,1714,1898.916508580704,4905.182910413624,1666.8200045221263,-1.6783255763416292,15.44939533181557,188.0902323070527,
29,2.7090003490448,0.09200000762939453,10.869564315997886,10.705055837377603,245.5,-7.4375,10.9375,1870,4923,1626,1893.1332068645634,4908.7463283309,1658.6560036177011,-6.389466194068997,17.24221750948457,166.77437118560803,
30,2.8020002841949463,0.09299993515014648,10.752695670007947,10.706637029703021,245.5,-7.4375,10.9375,1887,4907,1593,1891.9065654916508,4908.397062664721,1645.524802894161,-6.913084303321753,15.625389610190847,143.06066760684104,
31,2.8960001468658447,0.09399986267089844,10.638313414361951,10.70441934664586,245.5,-7.4375,10.9375,1902,4904,1607,1893.9252523933208,4907.5176501317765,1637.819842315329,-4.727169168167674,13.701863716965892,125.73347671892955,
32,2.9880001544952393,0.09200000762939453,10.869564315997886,10.709504131670883,245.5,-7.4375,10.9375,1864,4910,1583,1887.9402019146567,4908.014120105421,1626.8558738522634,-9.372403757868437,13.062343958590475,106.87563486324643,
33,3.079000234603882,0.09100008010864258,10.989001315231004,10.71776469164365,245.5,-7.4375,10.9375,1865,4899,1639,1883.3521615317254,4906.211296084337,1629.2846990818107,-12.532913267294623,10.531078337289507,100.70136897920753,
34,3.17900013923645,0.09999990463256836,10.000009536752259,10.695186697338839,245.5,-7.4375,10.9375,1895,4894,1627,1885.6817292253804,4903.769036867469,1628.8277592654488,-9.774110110927314,7.839643914906162,92.5955195736653,
35,3.261000156402588,0.0820000171661377,12.195119398254892,10.732903502406046,245.5,-7.4375,10.9375,1890,4899,1532,1886.5453833803044,4902.8152294939755,1609.4622074123592,-8.210511485952429,6.340343133650975,67.2809428527558,
36,3.3590002059936523,0.09800004959106445,10.204076469071287,10.717474781860144,245.5,-7.4375,10.9375,1902,4903,1677,1889.6363067042437,4902.852183595181,1622.9697659298877,-5.149720718805659,5.88117206289962,72.71338657488887,
37,3.442000150680542,0.08299994468688965,12.048200800282656,10.74956373627249,245.5,-7.4375,10.9375,1887,4916,1595,1889.1090453633951,4905.481746876145,1617.3758127439103,-5.242338612632887,7.867797808866616,61.92488132221562,
38,3.5310001373291016,0.08899998664855957,11.235956741755135,10.76182342738274,245.5,-7.4375,10.9375,1892,4909,1625,1889.6872362907163,4906.185397500916,1618.9006501951283,-4.338445864375219,7.870753852139399,58.475907048692214,
39,3.629000186920166,0.09800004959106445,10.204076469071287,10.746761639904527,245.5,-7.4375,10.9375,1882,4899,1649,1888.1497890325732,4904.748318000733,1624.9205201561026,-5.212379195791112,6.1355724839003125,58.703157638947765,
40,3.7290003299713135,0.10000014305114746,9.999985694905718,10.7267354412671,245.5,-7.4375,10.9375,1912,4905,1681,1892.9198312260587,4904.798654400587,1636.1364161248823,-1.1380987628958765,5.701892375082516,62.819242042486565,
41,3.821000337600708,0.09200000762939453,10.869564315997886,10.730174398713825,245.5,-7.4375,10.9375,1901,4935,1726,1894.535864980847,4910.83892352047,1654.109132899906,0.3020847201032233,10.318288875908243,73.02454167600378,
42,3.9110002517700195,0.08999991416931152,11.11112170750251,10.738940755882556,245.5,-7.4375,10.9375,1917,4902,1723,1899.0286919846778,4909.071138816376,1667.8873063199248,4.122690965729773,8.011341165474807,79.18965602377327,
43,3.995000123977661,0.0839998722076416,11.904780015951362,10.763453983872878,245.4375,-7.4375,10.875,1930,4902,1700,1905.2229535877423,4907.656911053102,1674.30984505594,9.483325535790277,6.098090473837204,78.97938864124916,
44,4.083000183105469,0.08800005912780762,11.363628728335758,10.776389426104375,245.4375,-7.4375,10.875,1920,4907,1682,1908.178362870194,4907.525528842481,1675.8478760447522,11.3390908541409,5.513578150300912,74.24375192684725,
45,4.17900013923645,0.09599995613098145,10.416671426762,10.76812598724201,245.4375,-7.4375,10.875,1910,4900,1720,1908.5426902961553,4906.0204230739855,1684.6783008358018,10.758201948147882,3.8818118292508883,75.60972281622651,
46,4.269000291824341,0.09000015258789062,11.111092273131861,10.775356489924736,245.5625,-7.4375,10.875,1906,4892,1648,1908.0341522369245,4903.216338459189,1677.3426406686417,9.494738574000936,1.1838662153543646,63.51171999024974,
47,4.359000205993652,0.08999991416931152,11.11112170750251,10.78228900640443,245.625,-7.375,10.875,1933,4906,1654,1913.0273217895397,4903.773070767351,1672.6741125349133,13.03558172841122,1.5690243902278014,54.62712856076632,
48,4.447000026702881,0.08799982070922852,11.363659515900926,10.793793503884556,245.625,-7.375,10.875,1932,4889,1715,1916.821857431632,4900.818456613881,1681.1392900279307,15.352067386765523,-1.1370831393688015,57.82788505905571,
49,4.539999961853027,0.09299993515014648,10.752695670007947,10.792951632537099,245.625,-7.4375,10.875,1898,4932,1715,1913.0574859453059,4907.054765291105,1687.9114320223446,11.053218342422912,4.113871219264781,58.98218411580946,
50,4.629000186920166,0.08900022506713867,11.23592664227124,10.801468563617997,245.625,-7.4375,10.875,1868,4910,1631,1904.0459887562447,4907.643812232884,1676.5291456178759,2.4056763858503363,4.3067267288360656,44.59298473912341,
51,4.7230000495910645,0.09399986267089844,10.638313414361951,10.79822135602471,245.625,-7.4375,10.875,1950,4884,1803,1913.236791004996,4902.9150497863075,1701.8233164943008,9.749086187715974,0.10154238412251981,61.87904834937817,
52,4.815000057220459,0.09200000762939453,10.869564315997886,10.799584503020315,245.625,-7.4375,10.875,1897,4907,1641,1909.9894328039968,4903.732039829047,1689.6586531954408,6.280509151902951,0.7775087083065518,46.933068188050896,
53,4.90500020980835,0.09000015258789062,11.111092273131861,10.805300251367541,245.625,-7.4375,10.875,1924,4891,1679,1912.7915462431974,4901.185631863237,1687.5269225563527,8.194269602877494,-1.4609492504654176,41.49541103847846,
54,5.004000186920166,0.0989999771118164,10.101012436301284,10.791366503372497,245.625,-7.4375,10.875,1912,4889,1659,1912.633236994558,4898.74850549059,1681.8215380450822,7.440181399380745,-3.243999330698415,33.86274207604438,
55,5.0990002155303955,0.09500002861022949,10.526312619366108,10.786428255578908,245.625,-7.4375,10.875,1925,4882,1651,1915.1065895956465,4895.398804392473,1675.657230436066,8.872004199295827,-5.709231454631314,26.258978905156862,
56,5.19700026512146,0.09800004959106445,10.204076469071287,10.775446823782529,245.625,-7.4375,10.875,1939,4902,1679,1919.8852716765173,4896.719043513978,1676.3257843488527,11.943536753793191,-4.232290419220527,24.762329623692345,
57,5.2890002727508545,0.09200000762939453,10.869564315997886,10.777083959262836,245.625,-7.4375,10.875,1898,4900,1534,1915.5082173412138,4897.375234811183,1647.8606274790823,7.360480555611849,-3.3572005167810626,-0.9684664661242657,
58,5.375000238418579,0.08599996566772461,11.627911618751906,10.790697195776243,245.625,-7.4375,10.875,1928,4897,1708,1918.0065738729713,4897.300187848947,1659.888501983266,9.03062506147214,-3.1658893141875994,9.875253202366062,
59,5.4720001220703125,0.0969998836517334,10.309290716166029,10.78216350215971,245.625,-7.4375,10.875,1918,4886,1628,1918.0052590983773,4895.040150279157,1653.510801586613,8.334223243438077,-4.716168430899167,4.05214200907679,
60,5.558000087738037,0.08599996566772461,11.627911618751906,10.795249919547672,245.625,-7.4375,10.875,1911,4904,1686,1916.604207278702,4896.8321202233265,1660.0086412692906,6.438057435292671,-2.748584615382087,9.55796260118835,
61,5.653000354766846,0.0950002670288086,10.526286201877227,10.79072990833306,245.625,-7.4375,10.875,2454,4711,609,2024.0833658229617,4859.665696178661,1449.8069130154324,93.05676854795895,-32.6612236777725,-161.55155400226187,
62,5.743000030517578,0.08999967575073242,11.111151142029108,10.795751292101658,245.625,-7.4375,10.875,1934,4906,1750,2006.0666926583694,4868.932556942929,1509.845530412346,70.47707701692514,-22.21796668116198,-97.74552662040915,
63,5.828000068664551,0.08500003814697266,11.764700602497504,10.809883194534013,245.625,-7.4375,10.875,1919,4891,1630,1988.6533541266956,4873.346045554344,1533.876424329877,49.27591308436104,-16.50908359302422,-68.44996811507772,
64,5.9170002937316895,0.08900022506713867,11.23592664227124,10.816291502942779,245.625,-7.4375,10.875,1925,4903,1714,1975.9226833013565,4879.276836443475,1569.9011394639015,34.467519747333476,-10.106763441569615,-32.01194921551115,
65,6.006000280380249,0.08899998664855957,11.235956741755135,10.822510317279697,245.625,-7.4375,10.875,1926,4897,1645,1965.9381466410853,4882.82146915478,1584.9209115711212,23.175212432690532,-6.261837491227013,-16.552392881500698,
66,6.104000091552734,0.09799981117248535,10.204101294031496,10.812581751323489,245.625,-7.4375,10.875,1923,4900,1735,1957.3505173128683,4886.257175323824,1614.936729256897,14.643285030737806,-3.080187384462308,8.306043565215406,
67,6.19100022315979,0.08700013160705566,11.494235485948398,10.8221608116506,245.625,-7.4375,10.875,1917,4900,1566,1949.2804138502947,4889.005740259059,1605.1493834055177,6.373257524572306,-0.4103787045800358,-0.9958722551655717,
68,6.27400016784668,0.08299994468688965,12.048200800282656,10.838380328468896,245.625,-7.4375,10.875,1923,4890,1705,1944.0243310802357,4889.2045922072475,1625.1195067244144,1.0063884661637958,-0.19430231282722477,17.60732220142266,
69,6.371999979019165,0.09799981117248535,10.204101294031496,10.828625271059886,245.625,-7.4375,10.875,1920,4893,1726,1939.2194648641887,4889.963673765798,1645.2956053795317,-2.8463627468374506,0.41708133902956135,32.10423788034276,
70,6.476000070571899,0.10400009155273438,9.615376150827128,10.809141327544529,245.625,-7.4375,10.875,1903,4913,1637,1931.9755718913511,4894.570939012639,1643.6364843036256,-7.990455006553786,3.7961113808000637,28.40382492526199,
71,6.56600022315979,0.09000015258789062,11.111092273131861,10.81328016858219,245.625,-7.4375,10.875,1928,4918,1553,1931.180457513081,4899.256751210112,1625.5091874429004,-8.055453341347532,7.512776665431398,10.707847163705027,
72,6.664000034332275,0.09799981117248535,10.204101294031496,10.804321673028669,245.625,-7.4375,10.875,1910,4906,1669,1926.9443660104648,4900.60540096809,1634.2073499543203,-10.763547456391784,7.993948285217659,16.71762664516241,
73,6.754000186920166,0.09000015258789062,11.111092273131861,10.808409532083253,245.625,-7.4375,10.875,1948,4887,1767,1931.155492808372,4897.884320774472,1660.7658799634564,-6.331907483493479,5.050382937487024,38.152628766394386,
74,6.845000267028809,0.09100008010864258,10.989001315231004,10.810810389072634,245.625,-7.4375,10.875,1968,4887,1731,1938.5243942466977,4895.707456619578,1674.8127039707654,0.3908681977483903,2.8195430955871905,47.10064004819952,
75,6.936000108718872,0.09099984169006348,10.989030106292951,10.813148619435795,245.625,-7.4375,10.875,1923,4886,1656,1935.4195153973583,4893.765965295663,1671.0501631766124,-2.2664384041655654,0.9596350682869406,40.29019686162927,
76,7.027000188827515,0.09100008010864258,10.989001315231004,10.81542592254874,245.625,-7.4375,10.875,1905,4904,1607,1929.3356123178867,4895.812772236531,1658.24013054129,-7.239836105582782,2.6176552087509792,26.348602861500165,
77,7.121000289916992,0.09400010108947754,10.63828643171471,10.81308760919845,245.625,-7.4375,10.875,1916,4886,1697,1926.6684898543094,4893.850217789225,1665.9921044330322,-8.867136904584546,0.8084730988601756,30.669774778872274,
78,7.210000276565552,0.08899998664855957,11.235956741755135,10.818307490711348,245.625,-7.4375,10.875,1910,4896,1617,1923.3347918834477,4894.28017423138,1656.193683546426,-11.068578399613859,1.1182055130849642,19.830915363003975,
79,7.297000169754028,0.08699989318847656,11.494266985289281,10.826366748277461,245.625,-7.4375,10.875,1930,4879,1629,1924.6678335067581,4891.2241393851045,1650.7549468371408,-9.036477966139383,-1.6726661052596703,13.490334411512908,
80,7.384000062942505,0.08699989318847656,11.494266985289281,10.834236093995942,245.625,-7.4375,10.875,0,0,0,1539.7342668054066,3912.979311508084,1320.6039574697127,-349.0294165821512,-867.347827417111,-279.75137986616346,
81,7.440000057220459,0.0559999942779541,17.857144681775026,10.887096690461737,245.625,-7.4375,10.875,1970,4893,1694,1625.7874134443255,4108.983449206467,1395.28316597577,-203.83106278663098,-531.0563278327861,-155.5266014284593,
82,7.5350000858306885,0.09500002861022949,10.526312619366108,10.882547984863095,245.625,-7.4375,10.875,1941,4901,1640,1688.8299307554605,4267.386759365174,1444.226532780616,-137.03846704634225,-361.774977863844,-103.88117828679515,
83,7.622000217437744,0.08700013160705566,11.494235485948398,10.88952999635334,245.625,-7.4375,10.875,1924,4903,1625,1735.8639446043685,4394.50940749214,1480.3812262244928,-84.8587626945635,-221.40762527433787,-63.883394410514946,
84,7.717000246047974,0.09500002861022949,10.526312619366108,10.885058613678034,245.625,-7.4375,10.875,1917,4885,1690,1772.091155683495,4492.6075259937115,1522.3049809795943,-48.96153888279024,-124.8481554988381,-24.984076788708002,
85,7.811000108718872,0.09399986267089844,10.638313414361951,10.882089209692937,245.625,-7.4375,10.875,1934,4877,1640,1804.4729245467959,4569.48602079497,1545.8439847836755,-18.665970120715226,-52.25981829137378,-3.778324781392609,
86,7.901000261306763,0.09000015258789062,11.111092273131861,10.884697779490553,245.625,-7.4375,10.875,1888,4916,1646,1821.1783396374367,4638.788816635976,1565.8751878269406,-2.9363039643730175,11.056479188971153,13.650384219152627,
