Index,Time,Difference,Hz,AveHz,Position-X,Position-Y,Position-Z,Velocity-X,Velocity-Y,Velocity-Z
0,0.0,0.0,0,0,1013,1138,2082,0,0,0,
1,0.05173134803771973,0.05173134803771973,19.3306387312941,19.3306387312941,1012,798,2049,0,0,0,
2,0.10712194442749023,0.05539059638977051,18.053605939954803,18.670310837699365,999,602,1904,0,0,0,
3,0.15993714332580566,0.05281519889831543,18.933943653706386,18.75736891141505,985,481,1782,0,0,0,
4,0.21277880668640137,0.0528416633605957,18.924461048395102,18.79886470975137,985,421,1713,0,0,0,
5,0.2627732753753662,0.049994468688964844,20.002212769204355,19.02781016394305,981,388,1625,0,0,0,
6,0.3163876533508301,0.05361437797546387,18.65171317398555,18.96407756893987,980,375,1544,-122.332512726,-1617.0829026,-1930.55996646,
7,0.3693692684173584,0.05298161506652832,18.874471809594954,18.95122469173734,955,389,1467,-168.073546428,-813.628758843,-1669.27590429,
8,0.4216139316558838,0.05224466323852539,19.140710993474194,18.97470505440865,948,417,1396,-141.738608409,-245.169484815,-1478.67845529,
9,0.47386980056762695,0.052255868911743164,19.13660648699453,18.99255869274495,940,465,1320,-170.53809847,166.748362949,-1489.36605997,
10,0.5251119136810303,0.05124211311340332,19.51519832499709,19.0435595526677,927,515,1222,-206.971628174,486.766607002,-1544.62159545,
11,0.5770266056060791,0.05191469192504883,19.262369917243028,19.063245772603786,929,576,1236,-196.477526642,774.352605003,-1186.5701609,
12,0.6289515495300293,0.051924943923950195,19.258566777936444,19.079371072329412,916,643,1186,-150.479205462,980.044056083,-1084.22196756,
13,0.6818842887878418,0.0529327392578125,18.891899682905738,19.06481820120768,907,706,1150,-157.681324415,1111.46104283,-946.087946488,
14,0.7330896854400635,0.05120539665222168,19.529191557519404,19.097254098720533,903,757,1175,-142.322901864,1123.19695525,-557.751912711,
15,0.7845203876495361,0.051430702209472656,19.44363885849914,19.119961999892418,907,806,1171,-77.1107444398,1121.9613316,-196.632398321,
16,0.8379688262939453,0.05344843864440918,18.709620437239884,19.093789050319003,915,838,1205,-53.5840872745,1002.78791899,-118.650478965,
17,0.8909444808959961,0.05297565460205078,18.876595438261713,19.08087469479985,902,903,1161,-53.5730876694,994.928771004,-95.6662279811,
18,0.941821813583374,0.05087733268737793,19.655118442325264,19.111895414181298,909,925,1237,7.66532691557,839.353297254,333.441720827,
19,0.993659257888794,0.05183744430541992,19.291074500280562,19.12124286988367,927,954,1246,91.8050287736,753.56627785,271.589876789,
20,1.0443613529205322,0.05070209503173828,19.72305087933791,19.15045969871488,920,994,1201,50.3894214097,728.708555771,116.283280176,
21,1.0978655815124512,0.053504228591918945,18.690111535427985,19.128024736024418,918,990,1223,11.5986237887,587.663605296,69.5917427324,
22,1.1494834423065186,0.05161786079406738,19.373139154091668,19.139031664393066,923,998,1289,80.9008390394,365.979986131,493.10987605,
23,1.2036490440368652,0.05416560173034668,18.4619014292191,19.108560019174124,922,1035,1220,49.5262183498,419.068001421,-64.7650547651,
24,1.2543613910675049,0.05071234703063965,19.71906367094023,19.1332419595402,924,1025,1263,-11.4285693525,270.476141344,64.7618929978,
25,1.3068716526031494,0.05251026153564453,19.043896769037975,19.12965205894753,923,1040,1223,11.4829200294,176.071440451,84.2080802158,
26,1.3574519157409668,0.05058026313781738,19.770557485540824,19.15353295281024,932,1019,1309,53.8543165463,111.555369989,330.81937307,
27,1.4096331596374512,0.052181243896484375,19.163973974705755,19.153919454437517,923,1080,1152,0.0,318.47115885,-532.079862957,
28,1.459747552871704,0.05011439323425293,19.954347153833346,19.181398828117025,944,1006,1350,85.6922386854,-112.957950994,506.363228595,
29,1.5126802921295166,0.0529327392578125,18.891899682905738,19.17126847681374,929,1073,1172,19.4355300594,186.58108857,-353.726647081,
30,1.564741849899292,0.05206155776977539,19.2080307013125,19.17249161702349,953,991,1371,115.779862141,-189.107108163,571.180653227,
31,1.6168169975280762,0.05207514762878418,19.203018052458805,19.173474825781376,923,1066,1102,-34.7517454706,181.481337458,-799.290145824,
32,1.669543981552124,0.05272698402404785,18.96562108585459,19.166910457938688,936,973,1327,49.5718638559,-408.014571737,667.313551906,
33,1.7212727069854736,0.05172872543334961,19.331618778979195,19.171860371732773,931,959,1255,-49.8579970282,-180.25583541,-364.34690136,
34,1.772839069366455,0.051566362380981445,19.392486765147837,19.178277705798926,925,945,1218,-15.377427955,-492.077694561,176.840421483,
35,1.8248486518859863,0.05200958251953125,19.227226052515768,19.179672771124004,923,924,1243,-115.367058317,-257.653096907,-492.232782151,
36,1.878507137298584,0.053658485412597656,18.636381409401938,19.16415396311475,918,943,1152,-19.1421305144,-470.896410654,191.421305144,
37,1.9333117008209229,0.05480456352233887,18.246655674803257,19.138145175601565,928,896,1284,-30.1831275665,-290.512602827,-162.23431067,
38,1.9835872650146484,0.050275564193725586,19.89037847783716,19.157211114540694,922,916,1178,-34.1639935652,-163.227969256,-292.291944947,
39,2.034087896347046,0.05050063133239746,19.801732644052592,19.173212755475742,943,872,1264,68.8207417164,-279.106341406,175.875228831,
40,2.0842697620391846,0.05018186569213867,19.92751736523532,19.191373750423384,939,897,1175,62.2076045936,-104.975332752,-264.382319523,
41,2.13586688041687,0.05159711837768555,19.380927296755292,19.195952882605578,945,870,1218,106.637608789,-288.316497838,260.669710374,
42,2.187375068664551,0.051508188247680664,19.414388935433553,19.201096602807166,938,884,1172,39.2565200504,-47.1078240604,-439.673024564,
43,2.236374855041504,0.048999786376953125,20.40825223822499,19.227545821785757,941,871,1222,75.1407806914,-177.965006901,174.01022897,
44,2.2888238430023193,0.05244898796081543,19.066144817648315,19.223847276199233,947,882,1191,15.6437846898,39.1094617244,-285.499070588,
45,2.341533899307251,0.05271005630493164,18.971711853520414,19.218171478667625,954,902,1174,58.3467396219,19.4489132073,-3.88978264145,
46,2.393395185470581,0.05186128616333008,19.282205937790202,19.219559009414336,964,904,1215,73.7792029033,132.025942038,-11.6493478268,
47,2.444753885269165,0.051358699798583984,19.470897898929504,19.224839065886318,970,939,1169,122.853052786,211.153684475,-11.5174736987,
48,2.497368574142456,0.052614688873291016,19.006099274068568,19.220230644762633,987,926,1226,176.460943409,210.985910598,15.3444298617,
49,2.5477523803710938,0.050383806228637695,19.84764698923459,19.232638296215775,993,951,1204,178.451513221,267.677269832,50.4319493886,
50,2.598593235015869,0.05084085464477539,19.66922088519147,19.24117993006884,994,976,1194,155.9469014,288.501767591,77.9734507002,
51,2.650815010070801,0.05222177505493164,19.149100139704338,19.239365933210795,999,972,1219,135.882010869,263.999335403,15.5293726708,
52,2.7023355960845947,0.051520586013793945,19.409717112539507,19.242613713612265,995,997,1191,97.57667263,226.377880502,85.8674719144,
53,2.756319046020508,0.053983449935913086,18.524195863494434,19.228543254642396,996,990,1234,34.5213362719,245.485057934,30.6856322417,
54,2.808603048324585,0.05228400230407715,19.126309309377778,19.226640102172006,995,1015,1201,7.61869159727,243.798131113,-11.4280373959,
55,2.859807014465332,0.05120396614074707,19.52973715456429,19.232066961792096,1013,1010,1295,72.7300551236,130.148519695,386.617661446,
56,2.9162566661834717,0.05644965171813965,17.714901147541674,19.202699354061878,996,1098,1116,-11.2190912232,471.201831374,-385.188798663,
57,2.969176769256592,0.05292010307312012,18.896410663038434,19.19724032270109,1048,1009,1523,199.194087747,45.1005481692,1247.78183268,
58,3.021120309829712,0.05194354057312012,19.251671891566872,19.1981761902323,1017,1183,993,79.0524020544,726.529218881,-907.220423577,
59,3.075289249420166,0.0541689395904541,18.460763817060663,19.185187218120774,1044,1072,1273,181.917548833,211.618373132,267.307418693,
60,3.126873016357422,0.05158376693725586,19.385943667440078,19.18849908075116,1043,1038,1243,113.951267222,106.354516074,-197.515529852,
61,3.17995548248291,0.05308246612548828,18.838612313828353,19.182658479348014,1041,1018,1232,170.795235671,-303.635974527,440.272163064,
62,3.231487512588501,0.05153203010559082,19.4054066558404,19.186210609966576,1029,1043,1214,-72.2546090867,129.297721524,-1175.0881162,
63,3.282719373703003,0.05123186111450195,19.519103507971817,19.191405913242644,1022,1067,1258,19.2836021953,-447.379570932,1022.03091635,
64,3.333298683166504,0.05057930946350098,19.770930259963706,19.200199587035655,1013,1124,1222,-120.140098774,201.525326976,-197.649839919,
65,3.3862099647521973,0.05291128158569336,18.89956111496625,19.195501955460312,1028,1138,1340,-58.1805537895,387.870358597,376.234247839,
66,3.438754081726074,0.05254411697387695,19.031626328351166,19.1929979380414,1024,1227,1261,-65.6159845584,806.690633688,111.933150129,
67,3.491086006164551,0.05233192443847656,19.108794693297373,19.19173571825259,1037,1246,1431,30.7150906284,779.395424697,833.146833297,
68,3.543120861053467,0.052034854888916016,19.217887743413517,19.192119791189324,1000,1407,1064,-83.8805515091,1296.33579605,-739.673954217,
69,3.59653377532959,0.05341291427612305,18.72206400928447,19.185138889367657,1059,1234,1781,174.968301967,418.402461226,2126.24523478,
70,3.6495509147644043,0.05301713943481445,18.86182488645051,19.180442096810378,1009,1412,1231,-72.107345167,1039.86381978,-413.668453853,
71,3.700282335281372,0.05073142051696777,19.711649896843262,19.187725034663096,1025,1385,1285,3.82415888165,604.2171033,91.7798131595,
72,3.752061128616333,0.05177879333496094,19.312925921832985,19.189452818577028,1030,1377,1348,-26.8019183919,501.578758477,-317.794175218,
73,3.803328514099121,0.051267385482788086,19.5055782654594,19.193714066346228,1026,1409,1333,100.582829736,7.73714074894,1040.64543073,
74,3.854745864868164,0.05141735076904297,19.448687749234907,19.19711508725644,1024,1480,1380,-136.455599837,959.087930285,-1563.39130099,
75,3.907655954360962,0.05291008949279785,18.899986932286716,19.19309193950395,1024,1601,1358,57.8665697848,729.118779289,489.936957511,
76,3.959665536880493,0.05200958251953125,19.227226052515768,19.19354028569655,1025,1648,1597,0.0,1013.46595556,1202.28660888,
77,4.013259410858154,0.05359387397766113,18.658848965029428,19.18639991017553,955,1892,962,-285.808334677,1962.55056478,-1470.96022914,
78,4.064997673034668,0.05173826217651367,19.328055445471552,19.188202865998242,1018,1766,1126,-30.4396906538,1358.37119543,-787.626995668,
79,4.116420745849609,0.051423072814941406,19.446523617885425,19.19142985557342,1054,1642,1345,114.961913974,620.794335462,-134.12223297,
80,4.167337894439697,0.05091714859008789,19.63974864442176,19.196907480610253,1066,1514,1368,161.793319029,-335.143303702,38.5222188163,
81,4.219604015350342,0.05226612091064453,19.13285284189399,19.196114067891937,1087,1488,1370,240.374591437,-620.321526289,-880.081165422,
82,4.272501707077026,0.05289769172668457,18.904416570138235,19.192502571543542,0,0,0,-3681.85613126,-7294.3160213,-3708.8435584,
83,4.30143141746521,0.028929710388183594,34.566540299983515,19.29590221129483,1099,1503,1380,350.250066302,-1137.23169676,1098.31502273,
84,4.353896379470825,0.052464962005615234,19.060339734792368,19.293063655825772,1092,1554,1339,162.951580546,-377.361554948,-25.7291969282,
85,4.407433986663818,0.053537607192993164,18.678458982957252,19.285597982226445,1094,1592,1385,119.256792957,332.215351808,72.4059100094,
86,4.460044860839844,0.05261087417602539,19.00747736397995,19.282317259877487,1094,1669,1383,29.8597943334,772.088967764,55.4539037621,
87,4.511845827102661,0.05180096626281738,19.30465920126663,19.282573770005822,1098,1726,1489,4174.61903637,6562.28821201,5661.20923967,
88,4.563607454299927,0.051761627197265625,19.319330827621783,19.282990678149705,1063,1889,1307,-137.331802927,1472.50210916,-278.478378157,
89,4.618012189865112,0.05440473556518555,18.38075288137079,19.272361427569034,1102,1750,1975,37.9906366299,744.616477946,2416.20448966,
90,4.669945478439331,0.05193328857421875,19.255472307918318,19.272173607919182,1014,2034,1156,-304.906201477,1684.60676316,-872.794001729,
91,4.722350120544434,0.05240464210510254,19.082278970523337,19.270066318062145,1027,1965,1384,-254.626635512,1124.91767331,3.80039754496,
92,4.774331569671631,0.051981449127197266,19.237632209002594,19.269713185489458,1029,1943,1477,-261.95388175,823.825975939,-45.5571968261,
93,4.826962471008301,0.05263090133666992,19.00024462061155,19.26677502851463,1020,1951,1486,-164.632465732,237.377043614,685.330496884,
94,4.880549669265747,0.05358719825744629,18.661173424215054,19.260125676405995,1000,1966,1495,-387.456677285,820.496493075,-1823.32554017,
95,4.93347692489624,0.052927255630493164,18.893857013509436,19.2561962782461,1020,1973,1584,22.7351520558,-231.140712568,1621.77417998,
96,4.985100746154785,0.05162382125854492,19.370902339672835,19.257384130912254,989,2047,1457,-144.233613791,311.240956076,277.080363336,
97,5.039470911026001,0.05437016487121582,18.392440088579008,19.248052367515598,1000,2008,1588,-109.172134519,244.696163577,417.865756262,
98,5.092729330062866,0.053258419036865234,18.776374103553554,19.243119680737138,994,2079,1462,-98.0301312664,482.609877004,-90.4893519382,
99,5.144386291503906,0.05165696144104004,19.35847506519281,19.24427801300637,1003,2027,1712,11.3792954699,231.379007888,823.102372323,
100,5.1949217319488525,0.05053544044494629,19.788093092597222,19.249568166734523,0,0,0,-3889.02948345,-7522.60310868,-6039.43402136,
101,5.244291305541992,0.04936957359313965,20.255390663105892,19.259036944280073,0,0,0,-3862.89657272,-7995.2975575,-5690.83954142,
102,5.3130340576171875,0.06874275207519531,14.54698815238201,19.198070046956445,0,0,0,-3631.33378426,-7291.71823879,-5766.5580494,
103,5.381265878677368,0.06823182106018066,14.655918374478047,19.140477783884524,0,0,0,-3356.9798457,-7021.28883221,-4937.5297127,
104,5.452063798904419,0.07079792022705078,14.124708703207295,19.075345380385787,0,0,0,-3120.45403345,-6306.24160099,-5326.23858949,
105,5.519503116607666,0.06743931770324707,14.828145272766482,19.023451528465465,0,0,0,0,0,0,
106,5.586488246917725,0.0669851303100586,14.92868634234542,18.974352995101025,0,0,0,0,0,0,
107,5.633135557174683,0.04664731025695801,21.437463264043995,18.994749711591567,970,2284,1218,0,0,0,
108,5.6835455894470215,0.05041003227233887,19.83732116253222,19.002222873082967,1055,2111,1914,3646.07513196,7295.60625931,6614.77516832,
109,5.734233379364014,0.05068778991699219,19.728617121354656,19.008643839342522,1054,2201,1712,3926.78697998,8200.05516408,6378.23463921,
110,5.786103963851929,0.05187058448791504,19.27874940821195,19.011065249987443,1071,2240,1688,4292.24718955,8977.24902389,6764.99837157,
111,5.837367057800293,0.05126309394836426,19.50721119188142,19.01542234725057,1084,2290,1732,4246.16181805,8970.21269681,6784.45781261,
112,5.888258457183838,0.05089139938354492,19.649685646556165,19.020904196784517,1097,2323,1749,496.304903171,152.408592312,2075.10160302,
113,5.939662456512451,0.05140399932861328,19.453739262722397,19.024650108879992,1102,2376,1784,183.03153829,1031.98633291,-506.257446334,
114,5.9870665073394775,0.04740405082702637,21.095243603735913,19.041044534956924,1080,2451,1787,103.501874723,995.210333872,298.563100162,
115,6.039809942245483,0.05274343490600586,18.959705635063422,19.04033423231282,998,2520,1511,-288.476427117,1106.48492593,-699.456542462,
116,6.092625617980957,0.05281567573547363,18.933772711883535,19.03941047315515,0,0,0,-4243.34318986,-8964.25821475,-6779.95424801,
117,6.1217942237854,0.02916860580444336,34.28343496101094,19.112043907881187,1007,2442,1790,-395.318186816,522.698491457,180.089396216,
118,6.174274682998657,0.052480459213256836,19.054711315243118,19.111556588974267,0,0,0,-4709.19604283,-10153.4027203,-7623.59867551,
119,6.242121696472168,0.06784701347351074,14.739042277674113,19.064030755320694,0,0,0,-4270.63668793,-9691.97270566,-7066.32200123,
120,6.270329713821411,0.028208017349243164,35.4509141007328,19.13774960437715,1017,2605,1916,85.5354510998,382.658597026,1823.25566818,
121,6.321132659912109,0.05080294609069824,19.68389782385268,19.142138997867892,0,0,0,0.0,0.0,0.0,
122,6.377463102340698,0.05633044242858887,17.752390304189753,19.129863715749725,0,0,0,-3964.79288834,-9614.72118503,-7047.64574988,
123,6.445348739624023,0.0678856372833252,14.730656439541606,19.08352906396419,0,0,0,0.0,0.0,0.0,
124,6.515328645706177,0.06997990608215332,14.289816262771833,19.03204070629963,0,0,0,0.0,0.0,0.0,
125,6.581927061080933,0.06659841537475586,15.015372278347785,18.991398543312265,0,0,0,-3119.69887526,-7990.96909543,-5877.42678957,
126,6.651607513427734,0.06968045234680176,14.351227156548427,18.942789355150804,0,0,0,0,0,0,
127,6.72036600112915,0.06875848770141602,14.543659022032358,18.897780266530358,0,0,0,0,0,0,
128,6.792320966720581,0.07195496559143066,13.897581518947916,18.844810283133604,1054,2798,2129,0,0,0,
129,6.859489917755127,0.0671689510345459,14.887831127296993,18.806063066890143,1061,2938,2262,3058.04605908,8467.99182053,6519.604322,
130,6.910520076751709,0.05103015899658203,19.596254835635126,18.811898172084685,1069,3065,2442,3303.04558814,9470.37860396,7545.40442117,
131,6.961589097976685,0.051069021224975586,19.581342583298706,18.81754268405095,1076,3180,2622,3568.48084304,10546.2537926,8695.68473091,
132,7.013918876647949,0.05232977867126465,19.109578243813985,18.8197215168084,1066,3279,2666,3848.41174847,11837.656776,9624.63951352,
133,7.0655457973480225,0.05162692070007324,19.369739400292787,18.82374041789102,1081,3326,2772,104.825933832,2049.92937272,2496.41020201,
134,7.117548227310181,0.0520024299621582,19.229870618117133,18.826707697720856,1100,3379,2892,150.704142967,1704.11607817,2434.45154024,
135,7.169368505477905,0.05182027816772461,19.297464918334484,18.83011033633582,1136,3419,2964,257.96589106,1362.98396172,2009.82380796,
136,7.2184178829193115,0.04904937744140625,20.38761860320423,18.840693654188687,1142,3447,3015,258.191963681,1044.50385307,1537.41578374,
137,7.2690348625183105,0.05061697959899902,19.756216351158486,18.847068777509925,0,0,0,-4190.88858306,-12891.1103789,-10481.1528728,
138,7.302051305770874,0.03301644325256348,30.287938417544645,18.898799011578763,0,0,0,-4687.18466497,-14421.439589,-12019.3116478,
139,7.371803045272827,0.06975173950195312,14.336560021875854,18.855631267730875,0,0,0,-4347.08425198,-13353.4524431,-11428.8796879,
140,7.442707777023315,0.07090473175048828,14.103431115415137,18.81035829892444,0,0,0,-4051.89901057,-12194.9319693,-10572.0322776,
141,7.511824131011963,0.06911635398864746,14.468355783990756,18.770407499011167,1160,3516,3115,59.3106939584,227.357660174,329.503855324,
142,7.562802076339722,0.05097794532775879,19.61632611064602,18.776109511611836,1175,3575,3174,3604.97496498,10968.3280849,9738.03450115,
143,7.624363660812378,0.06156158447265625,16.243896393605155,18.755663601801924,1216,3612,3276,3851.74861061,11441.2138006,10376.9148424,
144,7.67501163482666,0.05064797401428223,19.744126383377345,18.76218654139568,1243,3642,3336,4280.60045753,12542.1937782,11488.4015497,
145,7.72766900062561,0.052657365798950195,18.990695505317824,18.763743631910373,1279,3668,3387,4740.44160434,13594.9490264,12553.4602923,
146,7.780602693557739,0.052933692932128906,18.89155931898027,18.764613199037463,1308,3679,3444,543.616457622,598.712720219,1208.44469296,
147,7.831448316574097,0.05084562301635742,19.667376278943273,18.770474381973045,1359,3691,3500,710.820410419,448.125910916,1259.38833585,
148,7.881309986114502,0.04986166954040527,20.0554856910608,18.778604097637356,1403,3729,3530,725.16333294,453.711817936,984.981211587,
149,7.92948317527771,0.04817318916320801,20.758434668131628,18.790631962565662,1394,3757,3541,598.570443371,455.864907203,812.628747622,
150,7.9821553230285645,0.05267214775085449,18.985365941979786,18.79191696098034,1395,3780,3577,460.42564785,444.548901373,754.145457686,
